SampleIdent,FeCu lotto 1274 1-020-01,/
Title1,Exported by X'Pert SW,/
Title2,Generated by User-1 in project luca.,/
DiffrType,XPERT,/
DiffrNumber,  1,/
Anode,Cu,/
LabdaAlpha1,  1.54056,/
LabdaAlpha2,  1.54439,/
RatioAlpha21,  0.50000,/
DivergenceSlit,Fixed,1/2,/
ReceivingSlit,Undefined,/
MonochromatorUsed, YES,/
GeneratorVoltage,  40,/
TubeCurrent,  30,/
FileDateTime, 15-oct-2001 23:31,/
DataAngleRange,  35.00000,  105.00000,/
ScanStepSize,  0.05000,/
ScanType,STEP,/
ScanStepTime,  5.00,/
RawScan
     378,     365,     391,     374,     391,     361,     396,     369
     361,     398,     376,     393,     382,     396,     391,     364
     371,     374,     383,     390,     420,     361,     370,     414
     373,     390,     368,     375,     394,     370,     392,     432
     374,     440,     344,     389,     414,     381,     419,     374
     375,     362,     386,     401,     406,     411,     415,     416
     384,     419,     397,     389,     352,     400,     402,     390
     397,     425,     367,     365,     417,     394,     424,     398
     409,     415,     414,     380,     433,     393,     449,     417
     416,     375,     415,     436,     436,     414,     412,     422
     420,     392,     427,     369,     410,     442,     448,     418
     389,     413,     403,     398,     374,     412,     382,     417
     453,     418,     414,     448,     432,     426,     441,     385
     424,     354,     448,     469,     450,     478,     441,     420
     477,     454,     457,     483,     465,     468,     474,     451
     465,     459,     475,     529,     505,     491,     487,     555
     516,     504,     567,     541,     516,     583,     577,     590
     546,     646,     740,     710,     711,     761,     844,     849
     935,     982,    1080,    1185,    1317,    1481,    1681,    1804
    2062,    2330,    2454,    2624,    2756,    2848,    2795,    2754
    2591,    2459,    2306,    2106,    1932,    1728,    1538,    1435
    1280,    1169,    1160,    1068,     984,     948,     927,     874
     808,     801,     800,     746,     793,     719,     740,     645
     668,     664,     657,     649,     637,     672,     679,     679
     630,     608,     620,     610,     633,     633,     598,     558
     572,     548,     558,     536,     514,     504,     522,     478
     505,     527,     509,     498,     498,     481,     482,     500
     523,     476,     527,     494,     474,     506,     470,     461
     478,     539,     483,     436,     486,     500,     497,     468
     470,     483,     490,     479,     487,     509,     471,     479
     486,     490,     537,     486,     441,     490,     442,     500
     503,     499,     506,     501,     492,     481,     533,     516
     496,     487,     499,     497,     497,     514,     517,     555
     516,     522,     561,     543,     588,     522,     561,     605
     568,     597,     591,     607,     638,     646,     653,     610
     761,     680,     758,     744,     799,     720,     759,     788
     878,     828,     800,     856,     857,     910,     857,     848
     866,     911,     880,     911,     807,     757,     844,     783
     772,     730,     709,     757,     739,     673,     704,     699
     634,     663,     657,     541,     548,     583,     589,     549
     593,     576,     564,     540,     533,     548,     496,     488
     476,     496,     511,     464,     467,     445,     491,     483
     510,     451,     439,     455,     463,     451,     468,     460
     483,     459,     436,     462,     477,     417,     447,     450
     473,     463,     435,     451,     426,     408,     467,     419
     444,     452,     399,     410,     427,     416,     435,     432
     411,     420,     399,     414,     424,     398,     419,     473
     398,     439,     423,     441,     401,     424,     408,     449
     444,     450,     425,     416,     436,     451,     447,     408
     403,     417,     419,     416,     399,     421,     416,     407
     406,     414,     380,     366,     402,     424,     388,     411
     426,     449,     440,     433,     419,     425,     408,     445
     404,     411,     402,     400,     395,     419,     445,     451
     435,     404,     407,     409,     436,     413,     382,     434
     425,     433,     416,     423,     370,     395,     395,     404
     421,     412,     401,     385,     427,     464,     429,     456
     425,     432,     395,     450,     453,     404,     445,     426
     409,     412,     414,     398,     381,     375,     421,     425
     391,     431,     414,     422,     397,     394,     412,     387
     424,     402,     394,     438,     382,     410,     438,     408
     444,     379,     403,     410,     405,     431,     416,     399
     436,     407,     456,     420,     448,     441,     455,     408
     411,     449,     449,     430,     427,     435,     400,     443
     431,     418,     431,     422,     397,     365,     412,     398
     420,     469,     432,     411,     437,     440,     400,     451
     418,     438,     393,     414,     452,     423,     411,     406
     399,     437,     433,     429,     404,     424,     375,     421
     447,     373,     455,     440,     416,     413,     443,     386
     434,     410,     442,     462,     406,     454,     398,     433
     436,     450,     395,     399,     416,     405,     443,     436
     437,     442,     419,     437,     411,     428,     410,     400
     462,     424,     427,     462,     420,     433,     425,     401
     406,     395,     447,     455,     413,     454,     408,     411
     417,     447,     421,     427,     403,     426,     452,     438
     440,     435,     406,     423,     406,     465,     460,     406
     451,     412,     448,     452,     461,     442,     416,     420
     433,     444,     417,     463,     452,     466,     418,     451
     415,     458,     447,     415,     443,     421,     394,     435
     432,     465,     398,     450,     467,     431,     418,     405
     444,     401,     459,     452,     408,     420,     416,     431
     428,     432,     430,     433,     416,     443,     450,     446
     424,     431,     452,     448,     434,     413,     434,     461
     453,     443,     428,     441,     451,     426,     438,     456
     432,     403,     415,     418,     420,     426,     447,     429
     438,     459,     436,     425,     437,     442,     452,     447
     457,     460,     437,     401,     450,     436,     441,     498
     434,     422,     453,     466,     464,     441,     429,     431
     417,     442,     439,     454,     421,     405,     471,     448
     428,     436,     475,     435,     461,     478,     434,     481
     474,     443,     472,     457,     469,     484,     456,     469
     456,     456,     445,     448,     471,     486,     453,     470
     432,     445,     471,     491,     499,     513,     498,     526
     480,     496,     508,     510,     516,     516,     530,     529
     545,     566,     540,     529,     497,     573,     556,     583
     541,     588,     587,     605,     615,     676,     656,     671
     674,     673,     669,     679,     728,     729,     673,     730
     707,     687,     789,     702,     704,     669,     688,     650
     645,     640,     636,     603,     632,     607,     605,     612
     616,     569,     588,     529,     555,     501,     564,     560
     493,     558,     540,     508,     527,     511,     490,     478
     508,     474,     446,     477,     475,     491,     493,     514
     443,     510,     498,     464,     485,     474,     495,     480
     475,     471,     472,     460,     464,     468,     416,     462
     483,     505,     469,     426,     487,     504,     459,     502
     460,     453,     468,     451,     455,     495,     446,     438
     458,     482,     487,     447,     447,     456,     472,     457
     426,     474,     471,     456,     448,     439,     417,     436
     456,     488,     466,     435,     505,     450,     461,     445
     480,     415,     468,     461,     416,     482,     471,     441
     450,     433,     447,     471,     430,     445,     451,     474
     442,     469,     470,     457,     481,     479,     457,     437
     482,     463,     470,     495,     442,     441,     442,     422
     453,     482,     445,     487,     432,     422,     485,     458
     466,     424,     440,     452,     413,     426,     438,     465
     456,     478,     466,     462,     457,     480,     448,     463
     448,     516,     438,     478,     479,     426,     477,     462
     483,     437,     485,     480,     457,     445,     481,     450
     444,     496,     453,     516,     470,     491,     477,     479
     481,     510,     438,     463,     443,     484,     471,     481
     513,     448,     473,     502,     462,     438,     491,     478
     479,     434,     508,     487,     486,     457,     436,     464
     497,     506,     501,     459,     508,     512,     482,     508
     471,     455,     497,     475,     459,     491,     502,     476
     510,     508,     473,     493,     510,     487,     522,     481
     469,     456,     475,     513,     470,     442,     456,     466
     487,     494,     473,     455,     481,     528,     482,     544
     464,     463,     539,     522,     487,     544,     478,     480
     523,     473,     494,     519,     538,     487,     506,     480
     508,     489,     515,     502,     488,     496,     527,     537
     479,     524,     494,     450,     526,     537,     547,     527
     512,     556,     586,     535,     608,     528,     583,     567
     562,     580,     555,     579,     554,     542,     588,     578
     567,     576,     613,     570,     596,     637,     630,     621
     600,     637,     672,     630,     613,     648,     704,     651
     640,     708,     605,     640,     683,     664,     645,     719
     661,     666,     658,     642,     676,     637,     670,     603
     645,     615,     617,     618,     590,     606,     565,     610
     612,     584,     567,     583,     590,     531,     620,     552
     530,     546,     577,     558,     542,     565,     532,     547
     554,     525,     576,     534,     519,     484,     535,     488
     544,     505,     505,     500,     492,     504,     539,     529
     462,     488,     445,     522,     471,     485,     480,     501
     503,     489,     495,     524,     476,     461,     511,     488
     500,     502,     487,     492,     527,     480,     511,     478
     499,     492,     535,     489,     530,     506,     504,     543
     535,     527,     521,     511,     510,     543,     518,     568
     530,     555,     511,     573,     551,     506,     568,     568
     608,     537,     548,     578,     575,     571,     566,     600
     569,     548,     562,     545,     579,     550,     587,     528
     583,     559,     533,     516,     506,     572,     507,     559
     517,     530,     546,     501,     490,     458,     533,     510
     519,     519,     479,     472,     479,     481,     541,     490
     491,     531,     481,     479,     494,     497,     509,     451
     474,     482,     465,     500,     480,     468,     500,     489
     487,     469,     489,     499,     452,     497,     455,     488
     474,     489,     497,     481,     442,     467,     448,     431
     466,     481,     440,     475,     477,     450,     440,     477
     452,     494,     465,     435,     487,     468,     449,     479
     454,     498,     483,     464,     502,     458,     445,     480
     462,     479,     487,     498,     521,     472,     461,     469
     470,     448,     499,     470,     494,     446,     482,     463
     514,     441,     483,     444,     447,     443,     514,     508
     450,     473,     470,     470,     452,     484,     471,     472
     470,     486,     506,     465,     442,     490,     487,     476
     454,     461,     476,     474,     478,     463,     512,     493
     506,     462,     474,     448,     458,     477,     477,     467
     452,     481,     466,     455,     462,     461,     435,     447
     404,     487,     473,     460,     473,     447,     467,     445
     410,     474,     460,     502,     470,     482,     461,     468
     473,     471,     471,     497,     512,     526,     447,     417
     472,     451,     447,     501,     473,     494,     495,     464
     466,     459,     484,     465,     453,     455,     464,     452
     492,     483,     515,     475,     458,     482,     470,     464
     459,     487,     511,     487,     452,     459,     482,     473
     510,     466,     471,     487,     467,     489,     482,     514
     445,/
