SampleIdent,FeCu lotto 1292 1-028-01,/
Title1,Exported by X'Pert SW,/
Title2,Generated by User-1 in project luca.,/
DiffrType,XPERT,/
DiffrNumber,  1,/
Anode,Cu,/
LabdaAlpha1,  1.54056,/
LabdaAlpha2,  1.54439,/
RatioAlpha21,  0.50000,/
DivergenceSlit,Fixed,1/2,/
ReceivingSlit,Undefined,/
MonochromatorUsed, YES,/
GeneratorVoltage,  40,/
TubeCurrent,  30,/
FileDateTime, 16-oct-2001 20:49,/
DataAngleRange,  35.00000,  105.00000,/
ScanStepSize,  0.05000,/
ScanType,STEP,/
ScanStepTime,  5.00,/
RawScan
     615,     567,     609,     626,     588,     603,     554,     570
     567,     602,     544,     588,     558,     597,     591,     572
     565,     577,     569,     570,     617,     604,     591,     624
     589,     594,     550,     572,     572,     575,     588,     566
     566,     551,     594,     571,     575,     586,     600,     593
     588,     615,     583,     627,     603,     540,     578,     592
     566,     632,     581,     578,     565,     602,     575,     591
     568,     598,     606,     582,     629,     583,     578,     570
     558,     555,     581,     655,     565,     645,     596,     582
     580,     595,     594,     602,     632,     615,     580,     624
     606,     645,     628,     545,     576,     617,     596,     573
     582,     610,     632,     597,     625,     635,     587,     594
     605,     628,     586,     614,     637,     654,     669,     636
     632,     665,     629,     652,     660,     631,     660,     650
     646,     692,     645,     664,     661,     692,     656,     670
     667,     662,     731,     695,     743,     685,     716,     763
     744,     743,     767,     737,     769,     834,     802,     826
     864,     893,     876,     943,     944,     954,    1004,    1062
    1079,    1159,    1216,    1274,    1407,    1509,    1626,    1753
    1910,    2092,    2208,    2541,    2733,    2857,    2958,    3031
    3124,    3101,    3046,    3017,    2821,    2812,    2514,    2423
    2337,    2181,    2055,    1927,    1950,    1826,    1841,    1841
    1787,    1749,    1865,    1805,    1859,    1928,    1971,    2060
    2158,    2298,    2316,    2424,    2614,    2568,    2612,    2661
    2718,    2696,    2557,    2433,    2277,    2090,    2082,    1858
    1703,    1650,    1546,    1389,    1309,    1293,    1137,    1085
    1058,    1084,     995,    1026,     938,     948,     893,     839
     840,     830,     824,     750,     790,     756,     753,     740
     767,     778,     781,     724,     743,     730,     714,     728
     723,     689,     763,     673,     734,     720,     715,     714
     673,     717,     710,     665,     691,     670,     692,     720
     682,     739,     662,     700,     646,     701,     704,     690
     700,     707,     706,     711,     744,     690,     720,     698
     731,     737,     701,     680,     730,     747,     713,     741
     757,     784,     719,     818,     725,     789,     792,     755
     786,     805,     812,     826,     780,     867,     871,     841
     861,     874,     944,     967,     967,     925,     977,    1005
     924,     970,    1016,    1055,     951,     981,    1053,     980
    1011,     994,     958,     970,     896,     933,     918,     826
     784,     804,     787,     812,     784,     767,     766,     777
     753,     728,     706,     730,     710,     670,     681,     654
     672,     690,     672,     696,     633,     659,     629,     627
     614,     671,     617,     677,     596,     606,     625,     622
     644,     630,     632,     653,     596,     596,     639,     613
     594,     612,     584,     567,     562,     626,     577,     570
     623,     612,     604,     612,     605,     570,     616,     581
     600,     597,     556,     612,     614,     577,     577,     583
     579,     601,     573,     578,     596,     558,     570,     595
     561,     558,     598,     552,     616,     594,     573,     592
     638,     579,     609,     608,     609,     578,     594,     624
     583,     618,     621,     604,     612,     591,     598,     554
     546,     588,     594,     565,     642,     587,     565,     575
     592,     603,     556,     641,     589,     582,     576,     600
     580,     558,     603,     581,     604,     595,     590,     601
     573,     590,     543,     556,     591,     587,     556,     600
     600,     606,     570,     677,     576,     583,     576,     565
     565,     595,     556,     652,     577,     563,     579,     590
     576,     576,     562,     591,     572,     612,     580,     583
     550,     612,     568,     579,     565,     604,     575,     580
     604,     617,     609,     618,     607,     581,     583,     551
     562,     549,     596,     632,     577,     587,     581,     557
     618,     612,     544,     562,     601,     605,     554,     608
     602,     607,     606,     545,     618,     603,     558,     600
     566,     586,     572,     589,     597,     600,     612,     590
     552,     596,     613,     593,     630,     589,     539,     545
     602,     574,     575,     594,     602,     629,     557,     580
     551,     593,     586,     576,     590,     560,     585,     568
     562,     617,     646,     609,     622,     590,     556,     580
     591,     568,     566,     592,     580,     575,     565,     614
     583,     615,     577,     619,     602,     614,     595,     617
     615,     597,     599,     583,     576,     640,     630,     610
     640,     643,     672,     653,     610,     592,     634,     611
     659,     666,     636,     658,     656,     652,     682,     665
     667,     631,     646,     689,     654,     697,     680,     676
     744,     713,     777,     728,     718,     756,     710,     746
     725,     767,     730,     725,     753,     732,     742,     703
     707,     676,     723,     736,     672,     677,     664,     712
     657,     641,     682,     653,     654,     594,     626,     650
     653,     656,     641,     606,     626,     638,     604,     611
     605,     576,     596,     638,     592,     615,     570,     614
     635,     606,     619,     593,     587,     583,     637,     604
     593,     567,     602,     598,     577,     565,     648,     603
     597,     595,     590,     564,     572,     618,     582,     549
     581,     550,     614,     581,     620,     624,     585,     615
     570,     553,     567,     595,     611,     597,     599,     579
     575,     567,     599,     653,     575,     517,     604,     601
     599,     538,     618,     589,     609,     569,     629,     628
     589,     631,     613,     590,     585,     599,     601,     609
     622,     563,     613,     596,     644,     625,     612,     646
     579,     617,     600,     647,     591,     597,     650,     577
     606,     623,     637,     600,     618,     626,     625,     544
     624,     625,     616,     633,     672,     631,     609,     616
     660,     612,     646,     677,     672,     611,     673,     670
     663,     636,     631,     660,     697,     648,     706,     700
     652,     718,     750,     701,     811,     725,     758,     773
     781,     768,     802,     830,     774,     812,     851,     853
     933,     862,     863,     860,     839,     888,     832,     875
     862,     886,     830,     794,     841,     825,     773,     799
     746,     801,     754,     665,     786,     713,     722,     718
     712,     711,     716,     691,     706,     690,     677,     668
     670,     652,     649,     612,     671,     642,     651,     640
     621,     672,     602,     660,     619,     648,     628,     622
     578,     657,     617,     629,     649,     600,     565,     624
     636,     632,     667,     631,     584,     632,     622,     566
     601,     620,     618,     634,     618,     669,     615,     610
     624,     582,     597,     636,     602,     612,     634,     533
     577,     583,     634,     572,     577,     656,     626,     662
     561,     616,     624,     647,     659,     609,     629,     640
     639,     574,     624,     570,     644,     589,     614,     624
     629,     601,     592,     644,     590,     633,     618,     639
     620,     663,     624,     649,     584,     628,     624,     596
     644,     639,     606,     629,     666,     627,     650,     694
     649,     627,     642,     636,     650,     654,     647,     652
     643,     665,     634,     629,     626,     629,     642,     627
     661,     682,     696,     664,     704,     687,     715,     685
     651,     712,     678,     652,     725,     698,     756,     730
     776,     735,     728,     787,     799,     741,     798,     820
     880,     871,     819,     892,     903,     876,     844,     889
     898,     927,     914,     891,     912,     934,     902,     849
     874,     819,     843,     814,     814,     804,     779,     744
     787,     786,     777,     713,     767,     741,     747,     759
     701,     687,     730,     682,     648,     688,     621,     682
     638,     639,     654,     609,     682,     645,     650,     678
     594,     672,     628,     627,     648,     587,     599,     621
     641,     628,     652,     581,     667,     630,     641,     665
     622,     620,     642,     622,     651,     625,     648,     621
     650,     600,     648,     637,     595,     641,     638,     649
     619,     618,     639,     633,     655,     611,     688,     625
     613,     608,     659,     647,     652,     661,     600,     647
     656,     674,     677,     637,     624,     624,     645,     640
     682,     639,     641,     655,     650,     700,     592,     653
     660,     715,     656,     668,     706,     713,     717,     674
     712,     721,     714,     704,     698,     696,     671,     725
     688,     732,     675,     702,     723,     689,     765,     748
     745,     748,     778,     756,     768,     803,     791,     801
     757,     733,     775,     801,     750,     766,     766,     778
     755,     756,     739,     760,     769,     785,     771,     747
     745,     750,     684,     752,     691,     696,     757,     705
     704,     692,     710,     693,     665,     682,     646,     670
     673,     667,     682,     665,     683,     647,     622,     662
     674,     682,     635,     688,     672,     638,     597,     596
     628,     622,     655,     626,     609,     653,     615,     606
     623,     647,     621,     609,     622,     656,     628,     638
     635,     579,     631,     629,     569,     654,     664,     616
     589,     602,     629,     633,     640,     634,     675,     623
     672,     609,     609,     644,     630,     690,     631,     622
     618,     640,     673,     709,     668,     642,     661,     693
     660,     647,     646,     680,     740,     690,     678,     676
     661,     703,     642,     672,     654,     655,     701,     716
     659,     686,     675,     693,     675,     652,     637,     671
     681,     644,     633,     621,     639,     646,     647,     626
     634,     625,     674,     612,     586,     593,     631,     604
     633,     550,     656,     610,     598,     611,     585,     612
     612,     617,     629,     587,     629,     602,     599,     606
     585,     639,     619,     610,     601,     579,     641,     606
     628,     636,     627,     611,     602,     591,     625,     644
     609,     616,     665,     626,     628,     652,     603,     639
     618,     634,     666,     668,     628,     627,     612,     634
     643,     689,     655,     711,     646,     674,     667,     683
     652,     670,     650,     682,     667,     688,     674,     645
     700,     656,     716,     644,     637,     648,     679,     641
     650,     630,     659,     646,     599,     641,     660,     648
     615,     582,     628,     631,     572,     643,     647,     603
     616,     622,     603,     607,     623,     620,     617,     605
     636,     613,     602,     613,     602,     570,     597,     585
     604,     604,     606,     589,     570,     622,     547,     557
     590,     602,     611,     599,     566,     599,     594,     652
     569,     569,     579,     558,     627,     577,     579,     599
     641,     609,     579,     588,     582,     585,     566,     628
     570,     617,     598,     589,     610,     561,     590,     593
     587,     599,     564,     593,     591,     622,     604,     618
     581,     626,     621,     622,     588,     576,     560,     627
     585,     623,     619,     572,     600,     552,     589,     580
     617,     565,     601,     604,     599,     635,     621,     557
     576,     567,     617,     612,     619,     602,     595,     622
     585,/
