SampleIdent,FeCu lotto 1246 1-012-01,/
Title1,Exported by X'Pert SW,/
Title2,Generated by User-1 in project luca.,/
DiffrType,XPERT,/
DiffrNumber,  1,/
Anode,Cu,/
LabdaAlpha1,  1.54056,/
LabdaAlpha2,  1.54439,/
RatioAlpha21,  0.50000,/
DivergenceSlit,Fixed,1/2,/
ReceivingSlit,Undefined,/
MonochromatorUsed, YES,/
GeneratorVoltage,  40,/
TubeCurrent,  30,/
FileDateTime, 14-oct-2001 6:49,/
DataAngleRange,  35.00000,  105.00000,/
ScanStepSize,  0.05000,/
ScanType,STEP,/
ScanStepTime,  5.00,/
RawScan
     399,     333,     393,     384,     376,     388,     356,     348
     354,     345,     348,     361,     382,     407,     383,     381
     342,     345,     357,     384,     397,     336,     356,     385
     366,     401,     382,     381,     324,     358,     375,     349
     411,     369,     372,     355,     361,     366,     367,     378
     368,     395,     376,     354,     371,     382,     372,     343
     410,     411,     372,     407,     391,     396,     336,     352
     346,     343,     369,     401,     356,     336,     401,     373
     419,     362,     375,     395,     388,     358,     361,     398
     353,     349,     371,     391,     362,     403,     384,     418
     384,     402,     386,     388,     359,     367,     374,     392
     428,     383,     360,     378,     384,     413,     398,     421
     403,     396,     437,     392,     419,     380,     399,     441
     396,     403,     424,     428,     396,     430,     429,     448
     408,     435,     453,     435,     444,     457,     415,     485
     426,     480,     474,     480,     502,     496,     505,     489
     532,     496,     555,     590,     575,     545,     597,     634
     609,     617,     675,     705,     734,     809,     866,     905
     980,    1071,    1149,    1342,    1554,    1613,    1768,    2041
    2157,    2366,    2456,    2489,    2500,    2544,    2480,    2249
    2153,    1930,    1808,    1655,    1477,    1402,    1233,    1167
    1107,     941,     942,     884,     883,     743,     695,     738
     684,     713,     648,     649,     592,     614,     591,     547
     641,     571,     593,     588,     615,     538,     511,     579
     501,     548,     569,     533,     564,     542,     496,     508
     516,     473,     481,     469,     499,     519,     469,     474
     515,     447,     469,     460,     432,     463,     488,     470
     450,     454,     488,     468,     446,     447,     434,     430
     499,     446,     469,     449,     460,     447,     445,     399
     446,     443,     436,     512,     441,     447,     435,     441
     466,     469,     481,     446,     425,     454,     495,     491
     482,     493,     467,     457,     439,     504,     486,     481
     495,     511,     530,     484,     506,     519,     510,     526
     556,     530,     537,     568,     548,     603,     592,     606
     559,     606,     574,     609,     571,     622,     661,     650
     676,     741,     740,     688,     718,     749,     769,     783
     778,     775,     780,     818,     838,     823,     801,     764
     786,     820,     766,     752,     748,     743,     762,     706
     714,     687,     656,     641,     642,     587,     558,     587
     570,     534,     532,     561,     560,     489,     553,     512
     493,     507,     509,     476,     486,     442,     484,     450
     456,     421,     465,     447,     434,     451,     467,     444
     453,     434,     431,     457,     466,     412,     412,     417
     396,     419,     409,     400,     434,     399,     392,     411
     458,     407,     407,     417,     394,     415,     387,     371
     401,     388,     412,     408,     390,     390,     418,     393
     376,     391,     385,     393,     420,     408,     418,     407
     432,     397,     386,     373,     394,     371,     386,     380
     409,     427,     417,     396,     367,     371,     389,     404
     400,     395,     391,     416,     388,     389,     384,     394
     366,     399,     429,     366,     403,     366,     357,     396
     387,     352,     398,     410,     408,     368,     374,     378
     383,     382,     407,     380,     382,     427,     425,     412
     387,     380,     391,     396,     408,     425,     416,     407
     366,     404,     397,     398,     386,     365,     372,     364
     392,     404,     409,     382,     375,     400,     380,     370
     410,     417,     380,     409,     356,     394,     389,     395
     378,     382,     383,     388,     388,     405,     407,     364
     397,     375,     352,     402,     373,     392,     399,     399
     420,     388,     378,     391,     410,     415,     359,     436
     383,     391,     402,     409,     395,     398,     379,     390
     413,     424,     390,     394,     378,     378,     385,     389
     380,     418,     433,     409,     370,     365,     409,     357
     379,     372,     407,     368,     415,     397,     398,     399
     394,     414,     402,     380,     400,     402,     390,     393
     400,     422,     374,     381,     423,     358,     396,     404
     430,     403,     413,     381,     404,     418,     424,     403
     355,     389,     371,     409,     395,     364,     407,     395
     375,     383,     397,     403,     396,     420,     396,     384
     421,     413,     416,     422,     411,     397,     390,     381
     367,     435,     419,     437,     381,     431,     411,     372
     431,     421,     389,     394,     393,     353,     421,     372
     426,     436,     393,     353,     410,     399,     423,     377
     414,     416,     401,     401,     394,     397,     378,     414
     425,     395,     405,     399,     383,     384,     444,     406
     403,     411,     391,     371,     415,     400,     420,     407
     423,     415,     388,     373,     398,     400,     405,     395
     394,     391,     405,     409,     375,     439,     349,     389
     423,     405,     410,     409,     382,     440,     409,     396
     394,     421,     398,     400,     403,     391,     431,     370
     410,     419,     375,     407,     426,     410,     409,     366
     405,     399,     439,     429,     426,     418,     415,     368
     407,     411,     407,     412,     388,     426,     407,     389
     402,     396,     421,     422,     428,     419,     412,     431
     422,     438,     419,     389,     431,     417,     422,     395
     410,     403,     390,     431,     422,     417,     423,     397
     420,     413,     423,     385,     394,     399,     428,     397
     432,     437,     416,     435,     433,     425,     417,     413
     431,     412,     411,     455,     415,     440,     409,     440
     438,     458,     437,     432,     421,     401,     462,     435
     441,     431,     443,     453,     459,     463,     500,     454
     487,     471,     482,     442,     440,     493,     492,     425
     456,     429,     508,     464,     536,     491,     470,     531
     530,     544,     516,     509,     542,     555,     512,     575
     556,     591,     613,     629,     607,     608,     666,     653
     638,     632,     637,     621,     673,     655,     616,     619
     647,     635,     649,     625,     614,     629,     592,     614
     617,     608,     640,     536,     560,     516,     578,     523
     504,     539,     525,     511,     503,     498,     493,     520
     476,     475,     469,     471,     473,     436,     482,     497
     487,     465,     459,     447,     473,     485,     494,     441
     468,     458,     468,     448,     447,     465,     459,     453
     437,     422,     400,     436,     445,     421,     431,     433
     448,     437,     435,     413,     393,     404,     428,     419
     407,     417,     440,     422,     468,     431,     406,     432
     481,     402,     412,     423,     441,     401,     417,     433
     452,     444,     460,     501,     433,     435,     442,     479
     404,     435,     418,     424,     455,     410,     387,     429
     446,     396,     407,     474,     433,     427,     395,     452
     455,     428,     454,     426,     443,     426,     425,     458
     430,     441,     425,     432,     444,     435,     430,     424
     452,     426,     445,     451,     423,     431,     429,     402
     403,     448,     395,     429,     432,     425,     411,     468
     445,     447,     410,     417,     447,     414,     420,     378
     383,     447,     466,     403,     423,     455,     406,     414
     430,     446,     415,     435,     429,     431,     412,     399
     417,     423,     408,     440,     450,     426,     452,     418
     419,     479,     408,     417,     421,     426,     416,     434
     459,     422,     427,     427,     462,     414,     423,     439
     459,     413,     474,     422,     422,     420,     467,     444
     432,     438,     390,     457,     458,     471,     469,     416
     467,     432,     457,     425,     431,     415,     469,     441
     479,     434,     414,     480,     414,     434,     403,     439
     481,     457,     414,     457,     442,     458,     435,     482
     443,     463,     459,     465,     460,     439,     441,     464
     470,     447,     459,     453,     518,     435,     438,     428
     459,     475,     470,     476,     451,     429,     456,     460
     441,     432,     484,     474,     494,     474,     477,     503
     440,     507,     443,     462,     463,     505,     478,     493
     502,     488,     520,     491,     459,     505,     489,     466
     501,     541,     507,     540,     474,     496,     555,     524
     552,     555,     551,     554,     593,     538,     565,     563
     587,     582,     600,     593,     594,     612,     611,     592
     606,     577,     621,     671,     574,     588,     592,     599
     627,     629,     626,     610,     621,     651,     604,     575
     604,     609,     592,     565,     541,     597,     537,     594
     579,     565,     506,     545,     529,     550,     537,     546
     509,     566,     532,     548,     547,     527,     541,     516
     496,     487,     511,     526,     462,     504,     487,     474
     510,     485,     464,     514,     534,     492,     488,     509
     471,     485,     436,     477,     497,     476,     474,     493
     462,     495,     453,     475,     502,     443,     471,     471
     454,     442,     473,     452,     474,     442,     452,     472
     515,     470,     483,     495,     461,     505,     451,     485
     480,     499,     434,     494,     463,     494,     497,     510
     508,     484,     483,     556,     537,     503,     523,     499
     509,     496,     507,     544,     509,     576,     537,     578
     549,     573,     497,     543,     517,     532,     524,     522
     540,     523,     499,     498,     521,     514,     459,     513
     481,     471,     479,     490,     479,     479,     453,     467
     515,     462,     497,     495,     462,     465,     508,     454
     490,     485,     464,     453,     432,     418,     456,     452
     477,     457,     438,     467,     480,     446,     450,     457
     417,     441,     417,     461,     416,     463,     410,     420
     439,     440,     453,     447,     458,     425,     426,     424
     466,     446,     439,     425,     418,     430,     406,     410
     438,     424,     470,     424,     452,     414,     415,     437
     456,     453,     430,     439,     456,     462,     450,     466
     446,     445,     430,     438,     454,     442,     467,     436
     440,     441,     419,     450,     459,     483,     479,     466
     436,     450,     463,     452,     420,     415,     426,     431
     450,     444,     459,     420,     402,     454,     444,     439
     441,     432,     439,     476,     432,     391,     483,     449
     457,     445,     442,     437,     447,     449,     446,     470
     441,     410,     453,     404,     453,     464,     416,     445
     430,     472,     467,     453,     449,     439,     435,     494
     453,     427,     433,     417,     443,     453,     411,     459
     439,     431,     423,     434,     469,     448,     449,     454
     419,     473,     440,     440,     437,     447,     425,     428
     424,     446,     455,     441,     442,     489,     462,     422
     446,     426,     442,     471,     431,     425,     422,     435
     434,     461,     424,     436,     453,     411,     461,     449
     442,     425,     442,     426,     474,     399,     395,     459
     423,     460,     447,     418,     416,     431,     447,     486
     443,     441,     444,     429,     412,     450,     441,     452
     428,/
