SampleIdent,FeCu lotto 1264 1-016-01,/
Title1,Exported by X'Pert SW,/
Title2,Generated by User-1 in project luca.,/
DiffrType,XPERT,/
DiffrNumber,  1,/
Anode,Cu,/
LabdaAlpha1,  1.54056,/
LabdaAlpha2,  1.54439,/
RatioAlpha21,  0.50000,/
DivergenceSlit,Fixed,1/2,/
ReceivingSlit,Undefined,/
MonochromatorUsed, YES,/
GeneratorVoltage,  40,/
TubeCurrent,  30,/
FileDateTime, 15-oct-2001 1:26,/
DataAngleRange,  35.00000,  105.00000,/
ScanStepSize,  0.05000,/
ScanType,STEP,/
ScanStepTime,  5.00,/
RawScan
     314,     337,     323,     334,     325,     282,     322,     319
     361,     342,     339,     333,     354,     336,     356,     330
     339,     344,     365,     309,     304,     305,     338,     320
     336,     336,     323,     316,     332,     326,     336,     338
     373,     330,     341,     319,     331,     316,     345,     315
     370,     346,     340,     332,     319,     338,     337,     320
     340,     323,     344,     334,     330,     326,     341,     335
     348,     318,     328,     344,     316,     354,     331,     332
     336,     336,     349,     326,     338,     333,     331,     366
     330,     370,     314,     315,     325,     338,     356,     352
     315,     376,     358,     358,     344,     325,     349,     360
     367,     353,     330,     361,     362,     358,     359,     338
     373,     371,     343,     407,     371,     359,     343,     370
     370,     349,     339,     363,     373,     368,     358,     362
     322,     366,     420,     382,     410,     385,     409,     377
     409,     410,     367,     410,     416,     428,     426,     442
     484,     419,     423,     483,     432,     490,     504,     512
     550,     520,     528,     575,     597,     680,     682,     698
     832,     909,     942,    1030,    1231,    1361,    1547,    1656
    1796,    2079,    2292,    2393,    2471,    2504,    2403,    2377
    2210,    2005,    1876,    1604,    1469,    1343,    1241,    1113
    1025,     974,     893,     822,     760,     682,     714,     652
     688,     636,     599,     589,     581,     571,     598,     536
     515,     554,     521,     565,     499,     511,     566,     495
     526,     551,     516,     498,     487,     459,     460,     454
     452,     432,     455,     452,     413,     422,     426,     442
     396,     434,     421,     430,     411,     416,     422,     429
     407,     429,     402,     431,     430,     441,     389,     439
     435,     411,     435,     411,     408,     415,     433,     413
     434,     408,     417,     439,     415,     443,     445,     410
     395,     415,     409,     404,     420,     432,     391,     434
     443,     399,     407,     411,     423,     454,     437,     435
     412,     487,     458,     476,     465,     453,     459,     460
     474,     459,     444,     454,     504,     473,     498,     545
     557,     525,     536,     553,     532,     599,     592,     566
     557,     645,     597,     639,     704,     681,     693,     753
     743,     735,     746,     730,     750,     810,     796,     747
     790,     758,     810,     792,     693,     691,     760,     706
     670,     689,     590,     677,     599,     598,     632,     593
     580,     525,     554,     524,     538,     467,     514,     487
     451,     453,     484,     450,     446,     440,     469,     430
     416,     427,     424,     395,     438,     417,     378,     413
     406,     362,     406,     360,     417,     407,     381,     382
     400,     379,     378,     391,     402,     361,     389,     380
     377,     373,     363,     399,     356,     383,     386,     362
     377,     343,     332,     395,     373,     374,     383,     388
     344,     355,     383,     400,     393,     372,     396,     398
     345,     352,     384,     374,     382,     414,     360,     384
     363,     423,     361,     357,     346,     389,     397,     358
     381,     362,     384,     389,     354,     369,     353,     353
     360,     382,     383,     371,     368,     361,     371,     373
     373,     381,     346,     344,     410,     336,     378,     391
     388,     384,     349,     404,     358,     357,     378,     355
     406,     337,     360,     318,     349,     377,     378,     404
     378,     381,     363,     312,     386,     358,     388,     377
     386,     380,     366,     349,     359,     393,     362,     376
     351,     372,     378,     378,     342,     349,     358,     392
     371,     361,     335,     391,     358,     351,     375,     372
     352,     369,     383,     387,     347,     431,     328,     339
     356,     373,     358,     375,     360,     357,     391,     389
     411,     383,     383,     401,     393,     372,     399,     403
     364,     337,     352,     380,     364,     380,     390,     362
     386,     395,     407,     340,     367,     398,     401,     367
     404,     369,     397,     413,     359,     394,     391,     377
     355,     358,     392,     407,     348,     385,     377,     365
     360,     350,     373,     391,     378,     370,     342,     376
     348,     380,     386,     333,     387,     388,     400,     339
     365,     375,     389,     381,     347,     384,     392,     378
     379,     362,     380,     339,     397,     382,     386,     388
     398,     416,     380,     370,     369,     404,     386,     393
     347,     428,     414,     394,     366,     347,     371,     376
     375,     396,     364,     377,     381,     378,     410,     432
     385,     391,     363,     384,     387,     385,     388,     370
     368,     383,     383,     402,     426,     384,     375,     401
     386,     418,     391,     394,     408,     393,     381,     398
     405,     431,     397,     387,     414,     394,     382,     369
     397,     371,     371,     397,     389,     429,     401,     370
     384,     403,     384,     381,     375,     359,     353,     381
     401,     368,     400,     368,     379,     409,     417,     425
     406,     386,     369,     409,     384,     387,     416,     387
     373,     390,     372,     374,     434,     381,     384,     387
     388,     441,     378,     381,     406,     393,     374,     420
     409,     347,     400,     378,     379,     366,     391,     407
     389,     420,     389,     394,     378,     368,     360,     389
     388,     419,     403,     412,     402,     405,     397,     371
     408,     414,     384,     426,     393,     420,     417,     412
     382,     402,     376,     402,     397,     404,     390,     392
     386,     383,     415,     401,     355,     392,     433,     406
     429,     406,     393,     392,     419,     411,     415,     394
     406,     392,     425,     414,     412,     406,     431,     392
     401,     423,     416,     440,     471,     396,     420,     423
     462,     445,     461,     423,     463,     480,     481,     415
     446,     485,     459,     470,     453,     465,     453,     485
     483,     509,     468,     493,     495,     512,     519,     570
     559,     562,     545,     589,     590,     549,     629,     622
     609,     647,     646,     654,     654,     687,     668,     652
     631,     651,     649,     631,     658,     604,     593,     621
     638,     571,     575,     516,     561,     543,     572,     537
     508,     513,     504,     475,     489,     462,     515,     476
     467,     475,     474,     475,     431,     478,     468,     473
     457,     454,     433,     400,     445,     429,     437,     478
     426,     450,     423,     429,     433,     423,     392,     399
     424,     444,     424,     431,     432,     430,     411,     434
     455,     433,     421,     426,     405,     389,     420,     419
     449,     436,     421,     411,     405,     445,     417,     415
     419,     396,     432,     414,     430,     435,     383,     427
     392,     398,     385,     442,     381,     377,     396,     426
     420,     398,     421,     391,     406,     418,     430,     420
     412,     423,     419,     369,     417,     455,     394,     438
     420,     452,     388,     416,     381,     425,     379,     376
     394,     428,     440,     437,     411,     430,     427,     439
     418,     405,     456,     422,     406,     388,     413,     438
     441,     410,     373,     392,     413,     431,     359,     373
     424,     415,     450,     413,     416,     444,     400,     418
     395,     379,     434,     431,     434,     387,     415,     376
     396,     440,     402,     418,     431,     424,     436,     435
     440,     415,     411,     471,     425,     443,     436,     460
     440,     417,     405,     427,     417,     439,     443,     470
     416,     417,     437,     440,     433,     453,     427,     422
     450,     444,     460,     429,     458,     412,     446,     396
     403,     431,     454,     412,     434,     403,     451,     416
     461,     417,     453,     431,     398,     447,     435,     447
     457,     405,     426,     426,     435,     427,     398,     440
     430,     414,     475,     480,     437,     456,     448,     426
     468,     421,     454,     452,     478,     463,     447,     471
     440,     432,     439,     423,     460,     449,     451,     458
     460,     461,     449,     420,     445,     445,     458,     436
     463,     464,     450,     474,     482,     466,     500,     453
     505,     482,     475,     462,     474,     491,     485,     457
     460,     463,     480,     523,     488,     504,     490,     479
     516,     477,     486,     522,     531,     525,     510,     488
     537,     572,     542,     556,     553,     537,     551,     579
     587,     583,     602,     535,     572,     591,     601,     629
     620,     635,     586,     652,     607,     636,     646,     629
     578,     571,     617,     599,     629,     630,     616,     574
     602,     648,     598,     605,     594,     587,     580,     609
     572,     666,     543,     567,     569,     593,     560,     543
     570,     558,     532,     542,     571,     493,     482,     508
     525,     477,     467,     516,     473,     485,     491,     467
     485,     470,     487,     513,     439,     490,     454,     444
     468,     468,     455,     539,     473,     516,     456,     450
     461,     468,     461,     449,     477,     422,     476,     479
     428,     489,     467,     472,     489,     469,     448,     427
     493,     428,     445,     459,     450,     459,     469,     464
     441,     440,     478,     494,     496,     474,     475,     492
     476,     522,     512,     463,     555,     465,     508,     518
     545,     559,     524,     533,     506,     526,     562,     542
     562,     555,     547,     559,     539,     521,     508,     527
     532,     555,     560,     516,     532,     519,     531,     519
     526,     462,     526,     466,     493,     450,     463,     453
     480,     469,     464,     439,     449,     469,     448,     490
     455,     484,     480,     494,     469,     469,     456,     466
     465,     449,     449,     434,     485,     456,     431,     441
     461,     420,     472,     429,     465,     455,     438,     470
     434,     414,     449,     477,     423,     448,     431,     426
     464,     395,     431,     441,     445,     417,     427,     434
     431,     448,     443,     449,     451,     442,     431,     459
     448,     437,     447,     423,     455,     417,     435,     432
     463,     430,     442,     428,     473,     449,     436,     419
     454,     414,     459,     446,     458,     384,     438,     429
     447,     459,     458,     418,     448,     398,     403,     460
     392,     481,     423,     417,     455,     431,     435,     449
     441,     469,     460,     422,     468,     470,     416,     388
     449,     436,     469,     424,     433,     453,     418,     456
     468,     414,     457,     462,     430,     412,     413,     443
     444,     440,     434,     459,     435,     464,     409,     459
     463,     444,     466,     471,     468,     446,     452,     498
     434,     454,     421,     421,     416,     440,     437,     448
     391,     426,     419,     439,     426,     434,     432,     424
     425,     459,     437,     399,     466,     410,     398,     451
     439,     430,     451,     466,     440,     428,     422,     415
     409,     401,     470,     438,     461,     423,     423,     471
     440,     409,     426,     393,     458,     448,     428,     413
     410,     437,     415,     411,     432,     451,     457,     395
     439,     450,     446,     428,     392,     458,     449,     445
     432,/
