SampleIdent,FeCu lotto 1263 1-019-01,/
Title1,Exported by X'Pert SW,/
Title2,Generated by User-1 in project luca.,/
DiffrType,XPERT,/
DiffrNumber,  1,/
Anode,Cu,/
LabdaAlpha1,  1.54056,/
LabdaAlpha2,  1.54439,/
RatioAlpha21,  0.50000,/
DivergenceSlit,Fixed,1/2,/
ReceivingSlit,Undefined,/
MonochromatorUsed, YES,/
GeneratorVoltage,  40,/
TubeCurrent,  30,/
FileDateTime, 14-oct-2001 22:05,/
DataAngleRange,  35.00000,  105.00000,/
ScanStepSize,  0.05000,/
ScanType,STEP,/
ScanStepTime,  5.00,/
RawScan
     361,     398,     390,     393,     375,     366,     447,     401
     329,     365,     434,     391,     384,     402,     407,     396
     411,     352,     375,     356,     400,     360,     360,     390
     390,     370,     366,     414,     390,     403,     379,     412
     407,     385,     417,     387,     399,     378,     367,     402
     367,     383,     349,     410,     371,     415,     370,     390
     372,     396,     379,     363,     412,     379,     374,     449
     393,     448,     384,     407,     434,     399,     422,     382
     427,     411,     373,     382,     355,     396,     369,     409
     431,     362,     375,     388,     411,     376,     417,     405
     402,     403,     397,     389,     408,     406,     410,     398
     389,     404,     396,     412,     387,     393,     439,     388
     403,     405,     406,     388,     452,     438,     427,     440
     387,     400,     415,     460,     456,     399,     399,     445
     435,     451,     413,     435,     443,     471,     486,     468
     487,     457,     476,     486,     420,     482,     525,     484
     507,     492,     526,     502,     546,     555,     554,     604
     609,     591,     650,     631,     678,     681,     768,     745
     793,     843,     934,    1003,    1169,    1216,    1349,    1552
    1742,    1888,    2110,    2204,    2394,    2623,    2671,    2594
    2649,    2493,    2357,    2188,    1908,    1826,    1625,    1567
    1395,    1269,    1190,    1169,    1118,    1055,     929,     956
     876,     900,     865,     882,     809,     887,     882,     889
     848,     817,     855,     860,     880,     919,     879,     874
     886,     802,     853,     880,     774,     757,     740,     702
     683,     706,     633,     609,     635,     572,     603,     598
     494,     589,     538,     580,     540,     530,     494,     530
     510,     497,     544,     515,     535,     494,     505,     472
     534,     498,     515,     509,     475,     505,     495,     491
     507,     433,     484,     478,     461,     502,     479,     505
     474,     464,     491,     470,     513,     498,     493,     453
     483,     475,     470,     462,     464,     493,     508,     490
     513,     536,     471,     510,     504,     504,     533,     468
     530,     508,     526,     491,     529,     583,     522,     552
     560,     579,     559,     621,     590,     594,     585,     597
     638,     633,     662,     687,     726,     704,     735,     764
     747,     814,     824,     803,     860,     844,     822,     825
     829,     906,     844,     853,     821,     789,     821,     851
     766,     834,     735,     739,     725,     740,     686,     671
     662,     632,     618,     595,     605,     548,     558,     549
     524,     556,     505,     538,     498,     503,     495,     510
     490,     478,     515,     503,     483,     475,     470,     467
     443,     453,     462,     427,     451,     387,     456,     433
     487,     455,     426,     451,     450,     425,     462,     449
     451,     452,     455,     435,     434,     459,     430,     469
     466,     416,     439,     452,     420,     441,     424,     420
     431,     408,     452,     438,     426,     454,     418,     452
     448,     424,     460,     422,     416,     424,     456,     444
     421,     427,     470,     451,     447,     412,     439,     430
     446,     408,     393,     429,     374,     426,     421,     404
     396,     418,     397,     413,     446,     428,     432,     400
     457,     425,     424,     410,     449,     412,     419,     441
     423,     389,     424,     420,     450,     429,     467,     436
     403,     385,     414,     436,     364,     401,     398,     429
     425,     443,     422,     419,     438,     417,     405,     425
     416,     454,     418,     413,     401,     441,     441,     395
     396,     434,     424,     396,     409,     443,     424,     462
     399,     407,     448,     416,     439,     412,     422,     420
     401,     427,     449,     418,     414,     389,     430,     423
     431,     442,     415,     460,     438,     415,     409,     428
     391,     427,     441,     438,     416,     408,     431,     361
     453,     449,     413,     431,     437,     436,     410,     422
     447,     435,     456,     440,     457,     426,     423,     446
     450,     432,     417,     430,     403,     418,     457,     435
     388,     409,     422,     437,     432,     442,     440,     399
     422,     453,     378,     444,     413,     435,     396,     400
     451,     400,     432,     422,     396,     428,     439,     438
     442,     451,     450,     444,     433,     412,     415,     421
     435,     456,     424,     416,     435,     441,     398,     409
     422,     428,     448,     421,     432,     424,     414,     442
     429,     423,     462,     449,     426,     407,     444,     434
     457,     447,     422,     472,     414,     391,     471,     417
     452,     460,     481,     426,     410,     461,     389,     425
     441,     437,     431,     489,     456,     466,     460,     479
     460,     464,     481,     444,     452,     438,     454,     429
     458,     431,     485,     490,     482,     421,     491,     406
     451,     490,     472,     498,     418,     453,     480,     496
     421,     452,     448,     471,     434,     441,     478,     467
     482,     438,     428,     463,     425,     419,     469,     446
     428,     439,     448,     407,     482,     440,     423,     441
     438,     397,     409,     444,     444,     472,     411,     466
     455,     453,     431,     442,     440,     442,     470,     452
     416,     431,     462,     455,     462,     439,     474,     462
     466,     449,     447,     440,     403,     439,     442,     428
     431,     445,     446,     439,     441,     425,     476,     447
     443,     462,     415,     453,     440,     429,     469,     458
     424,     445,     409,     403,     422,     444,     419,     473
     441,     444,     450,     439,     455,     449,     473,     438
     492,     478,     434,     432,     435,     442,     461,     438
     474,     421,     452,     456,     504,     493,     466,     453
     443,     459,     440,     479,     476,     480,     495,     500
     441,     469,     481,     497,     484,     474,     451,     454
     536,     492,     485,     524,     494,     486,     521,     503
     508,     493,     519,     538,     529,     538,     516,     531
     557,     590,     602,     546,     581,     635,     643,     608
     676,     672,     645,     641,     667,     692,     695,     655
     669,     698,     742,     730,     714,     665,     672,     698
     663,     670,     684,     659,     651,     606,     576,     638
     608,     633,     583,     564,     544,     541,     518,     549
     527,     553,     529,     510,     496,     526,     500,     527
     468,     465,     510,     523,     489,     482,     495,     487
     488,     486,     502,     455,     480,     449,     465,     455
     480,     485,     491,     478,     494,     477,     486,     433
     480,     468,     491,     442,     449,     480,     438,     496
     467,     472,     467,     488,     469,     496,     452,     436
     444,     452,     442,     487,     467,     501,     473,     432
     503,     493,     430,     496,     453,     479,     477,     421
     475,     474,     449,     459,     451,     462,     459,     434
     481,     448,     458,     461,     483,     434,     468,     485
     438,     458,     448,     439,     463,     444,     453,     471
     484,     491,     461,     481,     434,     482,     457,     467
     473,     481,     476,     473,     462,     469,     450,     446
     469,     443,     493,     474,     480,     477,     484,     501
     462,     468,     484,     448,     469,     508,     480,     519
     469,     500,     474,     454,     503,     475,     466,     456
     455,     467,     472,     490,     504,     457,     601,     497
     485,     499,     518,     489,     514,     519,     481,     536
     483,     490,     495,     471,     485,     545,     499,     522
     537,     546,     555,     509,     554,     513,     568,     514
     484,     478,     547,     527,     515,     501,     496,     467
     486,     532,     477,     500,     528,     488,     474,     501
     520,     490,     478,     483,     476,     510,     497,     465
     469,     519,     477,     470,     478,     464,     509,     466
     457,     518,     488,     456,     510,     499,     505,     485
     503,     526,     530,     501,     466,     470,     481,     477
     478,     499,     491,     510,     492,     478,     474,     477
     465,     468,     515,     528,     493,     495,     524,     487
     477,     464,     458,     480,     472,     508,     508,     523
     495,     502,     506,     538,     528,     532,     510,     502
     506,     496,     532,     545,     508,     503,     504,     562
     550,     527,     533,     534,     575,     575,     551,     521
     577,     548,     572,     543,     588,     568,     566,     559
     588,     594,     626,     613,     625,     614,     587,     579
     613,     654,     636,     634,     623,     634,     639,     665
     666,     686,     662,     678,     630,     685,     712,     660
     673,     630,     667,     679,     667,     707,     664,     676
     644,     649,     616,     643,     620,     613,     629,     652
     593,     659,     612,     594,     596,     565,     560,     543
     597,     550,     511,     607,     550,     523,     528,     545
     515,     506,     539,     514,     537,     535,     568,     516
     521,     525,     537,     498,     525,     485,     502,     506
     527,     471,     542,     533,     471,     537,     494,     493
     502,     520,     495,     508,     507,     494,     498,     591
     508,     498,     523,     509,     543,     466,     537,     474
     491,     514,     462,     488,     520,     484,     526,     523
     532,     511,     513,     473,     495,     551,     523,     506
     529,     513,     533,     542,     530,     573,     535,     567
     587,     580,     565,     596,     575,     554,     596,     559
     573,     623,     604,     553,     560,     607,     588,     538
     583,     585,     548,     563,     571,     549,     533,     545
     501,     553,     553,     552,     482,     513,     501,     509
     531,     460,     538,     496,     505,     474,     490,     474
     521,     485,     498,     512,     505,     467,     487,     499
     502,     468,     470,     484,     478,     514,     483,     497
     485,     485,     470,     487,     482,     482,     524,     526
     479,     467,     480,     498,     473,     478,     471,     473
     463,     449,     501,     506,     490,     506,     485,     480
     487,     517,     466,     466,     463,     504,     469,     462
     482,     480,     526,     500,     482,     450,     436,     496
     498,     527,     507,     464,     478,     479,     512,     511
     492,     507,     496,     540,     489,     495,     494,     519
     548,     468,     476,     488,     469,     494,     523,     496
     512,     465,     498,     515,     445,     463,     460,     469
     498,     482,     492,     476,     501,     478,     463,     474
     436,     505,     495,     462,     504,     473,     485,     481
     470,     490,     467,     447,     456,     488,     442,     442
     478,     476,     471,     460,     454,     457,     486,     524
     455,     510,     501,     499,     484,     498,     486,     524
     509,     439,     456,     513,     532,     478,     480,     414
     478,     467,     482,     498,     493,     474,     471,     451
     440,     525,     488,     472,     468,     459,     472,     514
     456,     454,     449,     460,     475,     456,     501,     437
     476,     477,     482,     476,     494,     433,     509,     452
     492,     472,     461,     476,     553,     460,     498,     483
     443,     499,     458,     432,     496,     464,     464,     452
     474,/
