SampleIdent,Lotto 1222 1-030-01 CuFe,/
Title1,Exported by X'Pert SW,/
Title2,Generated by User-1 in project luca.,/
DiffrType,XPERT,/
DiffrNumber,  1,/
Anode,Cu,/
LabdaAlpha1,  1.54056,/
LabdaAlpha2,  1.54439,/
RatioAlpha21,  0.50000,/
DivergenceSlit,Fixed,1/2,/
ReceivingSlit,Undefined,/
MonochromatorUsed, YES,/
GeneratorVoltage,  40,/
TubeCurrent,  30,/
FileDateTime, 10-oct-2001 13:45,/
DataAngleRange,  30.00000,  110.00000,/
ScanStepSize,  0.05000,/
ScanType,STEP,/
ScanStepTime,  5.00,/
RawScan
     398,     357,     398,     366,     354,     402,     360,     386
     360,     366,     380,     387,     391,     399,     400,     333
     337,     390,     363,     376,     373,     383,     342,     372
     383,     399,     386,     425,     369,     360,     345,     338
     373,     357,     379,     382,     378,     355,     381,     373
     372,     399,     364,     356,     387,     395,     407,     401
     351,     369,     369,     373,     367,     323,     403,     388
     347,     347,     356,     333,     335,     362,     338,     359
     365,     383,     362,     357,     374,     356,     380,     366
     366,     358,     370,     369,     349,     373,     386,     373
     381,     345,     399,     363,     374,     374,     357,     368
     356,     378,     369,     378,     388,     398,     393,     367
     372,     411,     357,     374,     374,     360,     403,     347
     344,     350,     360,     432,     350,     346,     387,     349
     357,     373,     405,     355,     340,     374,     412,     376
     392,     400,     399,     353,     355,     407,     375,     362
     383,     381,     360,     381,     376,     393,     356,     368
     399,     391,     380,     372,     359,     399,     358,     398
     367,     375,     367,     373,     348,     410,     376,     379
     419,     402,     367,     399,     389,     407,     388,     390
     402,     413,     396,     387,     376,     370,     367,     400
     356,     361,     368,     367,     433,     414,     394,     403
     386,     361,     390,     407,     386,     428,     388,     391
     381,     388,     444,     384,     385,     382,     391,     375
     413,     414,     425,     424,     441,     396,     416,     407
     394,     407,     428,     383,     444,     401,     432,     418
     443,     421,     450,     426,     411,     417,     423,     420
     425,     413,     421,     453,     423,     444,     446,     415
     448,     472,     474,     460,     475,     439,     510,     450
     506,     513,     527,     551,     546,     547,     540,     574
     596,     553,     592,     671,     628,     683,     730,     730
     818,     882,     960,    1021,    1129,    1287,    1433,    1564
    1621,    1782,    1915,    1938,    1965,    1979,    1918,    1784
    1735,    1621,    1532,    1374,    1273,    1236,    1202,    1115
    1106,    1103,    1019,    1032,    1002,    1009,    1063,    1081
    1106,    1110,    1163,    1234,    1228,    1273,    1288,    1390
    1429,    1437,    1493,    1481,    1467,    1498,    1411,    1283
    1286,    1180,    1090,    1041,     958,     839,     887,     834
     742,     709,     659,     678,     645,     635,     592,     536
     529,     512,     525,     554,     576,     517,     515,     494
     486,     507,     457,     493,     498,     505,     476,     486
     508,     502,     504,     483,     461,     483,     442,     430
     426,     459,     453,     482,     423,     468,     476,     461
     463,     464,     454,     469,     420,     459,     443,     425
     456,     511,     455,     403,     452,     419,     449,     464
     468,     503,     453,     478,     473,     482,     482,     478
     488,     487,     449,     478,     452,     505,     482,     523
     499,     522,     503,     538,     551,     545,     507,     590
     573,     584,     598,     594,     605,     639,     629,     644
     661,     711,     639,     708,     709,     679,     698,     728
     712,     712,     697,     695,     714,     711,     661,     630
     617,     633,     596,     633,     571,     573,     556,     608
     588,     547,     567,     550,     508,     455,     508,     490
     466,     493,     447,     494,     465,     426,     456,     452
     495,     450,     434,     415,     437,     412,     430,     419
     426,     419,     460,     406,     365,     397,     453,     404
     441,     406,     389,     411,     411,     420,     420,     402
     425,     402,     389,     408,     409,     430,     385,     364
     393,     390,     392,     418,     450,     398,     396,     402
     422,     421,     417,     428,     347,     443,     428,     414
     394,     397,     402,     400,     415,     390,     422,     385
     427,     415,     429,     412,     370,     405,     420,     376
     398,     428,     391,     416,     427,     404,     379,     400
     413,     418,     404,     430,     395,     385,     415,     392
     404,     409,     396,     396,     406,     423,     374,     390
     381,     423,     396,     413,     405,     439,     411,     425
     381,     401,     436,     383,     404,     405,     393,     383
     412,     418,     417,     392,     431,     372,     407,     416
     408,     362,     414,     419,     453,     440,     439,     386
     424,     390,     377,     411,     401,     405,     404,     389
     415,     420,     387,     429,     397,     444,     439,     401
     446,     430,     391,     398,     393,     392,     408,     427
     407,     370,     397,     435,     378,     405,     394,     427
     394,     368,     400,     407,     358,     402,     433,     399
     415,     409,     431,     485,     408,     394,     417,     427
     403,     409,     418,     375,     406,     374,     434,     442
     435,     405,     393,     414,     410,     384,     399,     392
     424,     412,     387,     391,     431,     435,     410,     393
     404,     402,     401,     395,     368,     385,     398,     405
     437,     439,     397,     417,     426,     452,     406,     408
     431,     428,     407,     404,     425,     432,     436,     374
     417,     416,     425,     409,     389,     449,     426,     415
     424,     417,     455,     394,     440,     416,     412,     423
     415,     404,     436,     437,     454,     450,     397,     428
     443,     430,     426,     450,     423,     437,     475,     465
     441,     466,     459,     493,     421,     430,     423,     441
     500,     452,     460,     475,     431,     471,     479,     501
     472,     471,     530,     524,     511,     502,     493,     481
     461,     462,     470,     475,     482,     456,     478,     482
     451,     461,     442,     461,     523,     474,     454,     406
     451,     443,     416,     408,     444,     441,     426,     428
     410,     451,     422,     441,     454,     484,     455,     423
     432,     427,     436,     420,     427,     455,     421,     408
     426,     391,     419,     456,     428,     413,     403,     424
     434,     417,     400,     417,     429,     423,     426,     429
     424,     445,     397,     407,     413,     444,     442,     389
     432,     429,     419,     422,     430,     433,     450,     441
     437,     480,     428,     427,     458,     409,     412,     444
     415,     421,     425,     443,     456,     407,     470,     420
     466,     437,     440,     411,     449,     421,     432,     413
     433,     420,     450,     431,     432,     431,     423,     440
     455,     444,     466,     433,     429,     386,     429,     434
     405,     412,     431,     467,     453,     451,     427,     457
     428,     441,     438,     421,     456,     442,     452,     466
     418,     454,     424,     433,     480,     478,     438,     427
     495,     485,     475,     518,     466,     486,     480,     473
     436,     503,     515,     502,     509,     459,     486,     507
     518,     531,     531,     549,     543,     532,     559,     546
     589,     598,     564,     566,     667,     552,     571,     628
     585,     611,     619,     617,     592,     617,     566,     582
     558,     586,     580,     554,     534,     548,     521,     507
     547,     503,     494,     523,     515,     483,     518,     488
     488,     493,     463,     537,     497,     470,     473,     461
     529,     450,     447,     407,     464,     463,     424,     455
     458,     423,     468,     422,     478,     418,     476,     466
     473,     468,     473,     443,     455,     438,     428,     449
     429,     442,     450,     449,     440,     453,     463,     459
     485,     425,     435,     427,     442,     433,     435,     454
     440,     472,     466,     436,     437,     441,     425,     455
     433,     462,     435,     421,     468,     420,     487,     442
     447,     465,     480,     410,     449,     414,     475,     468
     455,     467,     413,     446,     426,     465,     426,     496
     481,     427,     484,     438,     475,     440,     433,     470
     422,     500,     443,     469,     453,     473,     443,     454
     473,     496,     463,     446,     449,     497,     448,     451
     433,     470,     477,     444,     465,     476,     467,     469
     465,     462,     453,     485,     452,     483,     464,     420
     460,     453,     487,     454,     480,     483,     500,     515
     477,     501,     538,     548,     515,     497,     562,     564
     538,     553,     546,     600,     569,     623,     581,     664
     569,     602,     608,     641,     614,     589,     611,     612
     607,     608,     610,     636,     577,     536,     563,     563
     541,     547,     536,     562,     512,     531,     544,     540
     498,     520,     492,     445,     475,     477,     464,     501
     456,     435,     457,     460,     482,     490,     480,     470
     475,     487,     451,     481,     459,     456,     453,     432
     486,     468,     444,     499,     430,     454,     466,     449
     463,     486,     456,     471,     443,     463,     484,     459
     480,     467,     509,     497,     474,     450,     495,     451
     470,     457,     468,     437,     441,     466,     445,     465
     483,     492,     465,     468,     455,     524,     465,     464
     436,     477,     461,     427,     497,     533,     478,     447
     474,     442,     493,     531,     470,     456,     464,     488
     492,     463,     454,     457,     443,     515,     508,     435
     501,     491,     487,     500,     500,     528,     513,     526
     506,     539,     502,     553,     551,     552,     535,     525
     542,     558,     551,     580,     595,     576,     583,     555
     568,     562,     568,     585,     587,     615,     599,     593
     613,     516,     581,     580,     563,     537,     604,     582
     567,     542,     568,     577,     563,     541,     563,     565
     523,     561,     560,     561,     574,     503,     537,     483
     526,     500,     501,     516,     493,     482,     440,     507
     507,     448,     490,     494,     486,     475,     492,     476
     480,     476,     452,     499,     460,     452,     474,     479
     502,     468,     468,     485,     484,     453,     469,     436
     440,     492,     455,     466,     478,     481,     481,     486
     465,     449,     480,     445,     459,     492,     509,     439
     453,     438,     492,     524,     481,     481,     459,     426
     492,     478,     456,     438,     459,     477,     456,     492
     478,     473,     499,     477,     502,     527,     490,     528
     520,     504,     508,     500,     459,     512,     503,     519
     525,     546,     536,     464,     522,     484,     536,     508
     504,     485,     518,     503,     486,     486,     518,     437
     517,     454,     466,     457,     425,     465,     487,     441
     463,     469,     467,     484,     495,     472,     467,     471
     465,     519,     452,     438,     437,     457,     443,     464
     448,     438,     464,     443,     465,     456,     449,     494
     456,     467,     465,     482,     496,     435,     463,     471
     467,     499,     522,     513,     518,     437,     458,     495
     447,     464,     471,     482,     463,     490,     460,     494
     462,     445,     436,     491,     493,     517,     498,     464
     486,     465,     467,     482,     485,     529,     501,     495
     511,     504,     544,     494,     505,     497,     501,     521
     478,     508,     477,     468,     507,     498,     466,     482
     475,     503,     472,     498,     470,     482,     446,     459
     457,     460,     459,     494,     447,     505,     444,     462
     471,     469,     468,     435,     431,     452,     455,     430
     442,     479,     468,     435,     473,     456,     421,     489
     421,     444,     443,     460,     459,     469,     470,     457
     448,     469,     454,     437,     462,     443,     429,     468
     451,     513,     457,     429,     439,     463,     458,     444
     468,     444,     451,     483,     462,     442,     446,     489
     470,     452,     462,     458,     453,     472,     464,     423
     443,     468,     468,     469,     452,     410,     425,     461
     472,     454,     478,     452,     477,     456,     454,     466
     474,     439,     463,     454,     476,     494,     448,     453
     467,     410,     464,     422,     484,     456,     472,     457
     449,     492,     438,     464,     440,     428,     463,     439
     452,     492,     468,     469,     488,     438,     471,     470
     453,     429,     450,     443,     446,     453,     452,     436
     408,     426,     475,     459,     470,     482,     453,     401
     452,     453,     458,     456,     461,     458,     465,     445
     436,     433,     432,     480,     451,     454,     452,     417
     427,     448,     453,     480,     480,     431,     433,     479
     433,     444,     481,     459,     480,     440,     462,     475
     465,     414,     414,     438,     482,     459,     465,     449
     448,     453,     447,     425,     486,     481,     458,     474
     477,     463,     443,     411,     461,     438,     417,     432
     422,     428,     448,     446,     448,     454,     435,     442
     447,     455,     460,     469,     479,     446,     480,     439
     428,/
