SampleIdent,FeCu lotto 1222 1-038-01,/
Title1,Exported by X'Pert SW,/
Title2,Generated by User-1 in project luca.,/
DiffrType,XPERT,/
DiffrNumber,  1,/
Anode,Cu,/
LabdaAlpha1,  1.54056,/
LabdaAlpha2,  1.54439,/
RatioAlpha21,  0.50000,/
DivergenceSlit,Fixed,1/2,/
ReceivingSlit,Undefined,/
MonochromatorUsed, YES,/
GeneratorVoltage,  40,/
TubeCurrent,  30,/
FileDateTime, 11-oct-2001 21:03,/
DataAngleRange,  35.00000,  105.00000,/
ScanStepSize,  0.05000,/
ScanType,STEP,/
ScanStepTime,  5.00,/
RawScan
     383,     420,     399,     424,     410,     399,     354,     408
     378,     383,     381,     406,     416,     391,     393,     398
     435,     428,     418,     398,     416,     395,     433,     404
     393,     453,     387,     417,     434,     417,     413,     401
     405,     429,     397,     400,     411,     427,     370,     421
     401,     395,     430,     457,     412,     424,     419,     398
     405,     385,     397,     421,     431,     439,     406,     414
     371,     389,     403,     396,     453,     463,     426,     411
     401,     425,     451,     410,     400,     453,     438,     436
     429,     362,     435,     418,     405,     365,     398,     400
     434,     459,     414,     449,     406,     429,     430,     431
     443,     389,     406,     419,     439,     440,     434,     412
     424,     439,     431,     445,     445,     445,     465,     400
     437,     428,     452,     436,     451,     459,     451,     435
     459,     470,     494,     516,     420,     469,     516,     458
     488,     474,     496,     458,     528,     520,     520,     512
     526,     487,     529,     528,     596,     549,     570,     603
     567,     575,     598,     611,     635,     622,     689,     721
     804,     775,     859,     902,     909,    1090,    1111,    1190
    1291,    1453,    1672,    1730,    1918,    2020,    2098,    2086
    2184,    2174,    2083,    2003,    1925,    1730,    1705,    1552
    1469,    1355,    1327,    1274,    1215,    1195,    1157,    1144
    1141,    1117,    1178,    1227,    1239,    1266,    1340,    1377
    1436,    1475,    1547,    1576,    1684,    1642,    1686,    1707
    1740,    1622,    1561,    1508,    1436,    1298,    1294,    1144
    1097,     959,     919,     905,     834,     739,     746,     722
     713,     688,     658,     665,     620,     614,     619,     587
     572,     568,     583,     574,     575,     576,     567,     523
     520,     547,     507,     486,     514,     506,     541,     484
     500,     536,     535,     521,     504,     490,     518,     540
     499,     466,     503,     453,     504,     547,     441,     506
     499,     512,     473,     481,     523,     494,     515,     475
     494,     463,     528,     531,     558,     489,     535,     506
     555,     538,     491,     518,     534,     540,     533,     526
     539,     524,     566,     563,     578,     609,     596,     619
     615,     588,     581,     598,     648,     644,     700,     679
     673,     717,     701,     734,     692,     714,     773,     761
     769,     756,     753,     714,     788,     793,     732,     802
     773,     790,     750,     693,     682,     676,     699,     670
     707,     659,     639,     587,     595,     596,     587,     504
     566,     543,     562,     497,     513,     552,     501,     519
     482,     478,     508,     497,     492,     457,     502,     460
     509,     459,     481,     448,     433,     449,     469,     418
     437,     436,     450,     445,     460,     467,     430,     449
     431,     452,     479,     463,     437,     442,     464,     458
     466,     431,     494,     428,     430,     445,     446,     420
     443,     497,     471,     453,     411,     465,     429,     437
     431,     444,     437,     451,     424,     408,     407,     395
     455,     430,     421,     440,     432,     404,     420,     432
     420,     432,     424,     431,     409,     475,     410,     447
     468,     463,     424,     401,     426,     477,     431,     448
     430,     423,     443,     406,     461,     445,     424,     436
     431,     467,     420,     424,     461,     422,     435,     441
     419,     442,     437,     438,     393,     431,     434,     440
     436,     442,     404,     432,     442,     447,     427,     466
     425,     444,     417,     429,     420,     410,     415,     437
     423,     411,     403,     442,     423,     396,     451,     399
     479,     430,     414,     442,     452,     417,     445,     429
     457,     420,     457,     444,     454,     457,     461,     422
     436,     433,     442,     462,     456,     404,     457,     460
     422,     443,     428,     453,     430,     416,     462,     497
     416,     467,     446,     452,     400,     449,     424,     441
     459,     427,     453,     419,     439,     438,     425,     432
     430,     424,     404,     457,     449,     434,     429,     445
     454,     448,     463,     465,     432,     466,     471,     418
     467,     482,     439,     414,     466,     453,     459,     490
     502,     432,     447,     483,     448,     466,     429,     435
     428,     415,     466,     451,     431,     445,     472,     423
     471,     482,     439,     447,     448,     455,     438,     432
     453,     410,     444,     460,     441,     470,     432,     474
     462,     463,     481,     439,     503,     451,     501,     450
     443,     427,     488,     497,     498,     492,     468,     478
     486,     480,     479,     494,     458,     470,     505,     480
     453,     464,     499,     478,     510,     503,     533,     513
     510,     511,     533,     543,     512,     511,     554,     555
     539,     566,     555,     590,     527,     498,     508,     518
     533,     513,     515,     510,     515,     527,     474,     486
     511,     508,     472,     527,     488,     459,     496,     498
     472,     481,     465,     480,     440,     461,     446,     481
     461,     528,     474,     449,     498,     468,     452,     485
     457,     467,     455,     464,     435,     470,     445,     484
     445,     436,     404,     470,     500,     435,     456,     402
     472,     453,     457,     441,     481,     455,     455,     471
     474,     470,     487,     417,     467,     448,     437,     488
     414,     459,     463,     453,     469,     445,     470,     453
     412,     468,     446,     440,     425,     491,     441,     479
     425,     466,     455,     460,     426,     469,     434,     407
     459,     440,     485,     453,     502,     475,     440,     430
     480,     489,     426,     444,     498,     417,     496,     438
     463,     486,     453,     502,     485,     498,     481,     472
     484,     505,     479,     465,     479,     446,     451,     494
     459,     482,     496,     492,     486,     498,     492,     494
     475,     453,     482,     471,     512,     485,     519,     488
     481,     502,     479,     476,     542,     548,     572,     591
     567,     528,     566,     550,     591,     550,     583,     575
     535,     593,     611,     613,     602,     631,     623,     614
     596,     650,     621,     685,     630,     617,     641,     663
     615,     665,     627,     645,     674,     622,     589,     572
     586,     617,     527,     565,     565,     595,     567,     525
     536,     489,     552,     514,     499,     504,     533,     523
     501,     500,     520,     543,     510,     511,     510,     506
     482,     482,     491,     483,     472,     501,     487,     519
     456,     502,     482,     510,     512,     464,     476,     428
     495,     518,     510,     486,     467,     489,     486,     449
     452,     449,     445,     506,     466,     443,     472,     431
     427,     485,     510,     492,     479,     496,     479,     499
     487,     543,     506,     469,     480,     456,     472,     465
     478,     491,     474,     453,     488,     457,     455,     447
     478,     487,     478,     482,     441,     509,     475,     464
     481,     506,     515,     472,     462,     491,     474,     479
     467,     444,     529,     514,     505,     487,     469,     487
     464,     472,     479,     474,     482,     473,     510,     521
     495,     521,     497,     493,     470,     484,     497,     487
     504,     527,     513,     518,     497,     526,     496,     492
     489,     535,     508,     507,     577,     525,     521,     546
     518,     532,     573,     587,     575,     537,     561,     566
     533,     551,     609,     568,     587,     571,     604,     632
     655,     621,     667,     635,     683,     642,     627,     682
     675,     652,     671,     679,     657,     702,     696,     624
     618,     630,     583,     608,     564,     633,     568,     587
     562,     607,     555,     604,     571,     555,     487,     546
     510,     534,     517,     513,     522,     528,     526,     530
     529,     459,     517,     484,     487,     483,     510,     532
     503,     487,     482,     508,     553,     499,     513,     536
     509,     493,     528,     474,     509,     523,     518,     473
     506,     494,     488,     470,     523,     518,     469,     481
     463,     490,     499,     480,     468,     463,     507,     514
     501,     493,     529,     511,     478,     534,     502,     521
     499,     479,     516,     503,     509,     516,     538,     512
     538,     495,     505,     487,     522,     509,     495,     522
     484,     539,     513,     542,     525,     485,     541,     541
     548,     534,     533,     524,     557,     523,     548,     555
     558,     568,     541,     570,     584,     554,     557,     558
     594,     585,     645,     575,     589,     576,     581,     606
     637,     585,     666,     592,     584,     627,     639,     575
     602,     656,     641,     606,     572,     603,     577,     700
     595,     596,     591,     594,     625,     604,     603,     619
     620,     573,     556,     608,     597,     597,     596,     611
     558,     535,     588,     549,     566,     518,     555,     533
     543,     548,     502,     557,     522,     537,     528,     479
     524,     514,     515,     515,     481,     530,     532,     489
     550,     510,     482,     487,     484,     502,     473,     531
     457,     483,     516,     519,     497,     511,     502,     476
     476,     472,     515,     531,     499,     501,     480,     525
     538,     491,     511,     521,     533,     477,     511,     512
     487,     499,     492,     550,     496,     503,     524,     518
     508,     511,     468,     511,     525,     524,     512,     589
     535,     537,     549,     511,     501,     568,     572,     594
     538,     550,     560,     596,     555,     551,     562,     575
     547,     569,     578,     582,     558,     533,     563,     570
     558,     536,     500,     510,     528,     557,     548,     538
     529,     535,     535,     518,     487,     512,     499,     514
     521,     561,     475,     541,     494,     468,     494,     476
     493,     549,     528,     531,     470,     479,     485,     513
     452,     478,     535,     483,     516,     488,     482,     510
     516,     492,     483,     536,     537,     553,     516,     526
     541,     493,     496,     521,     524,     518,     454,     507
     533,     489,     515,     496,     532,     509,     510,     592
     566,     529,     562,     494,     476,     567,     539,     563
     513,     565,     558,     542,     506,     517,     520,     564
     480,     556,     507,     536,     510,     533,     538,     497
     481,     579,     513,     496,     511,     484,     520,     500
     520,     498,     465,     499,     489,     487,     504,     479
     513,     508,     475,     502,     506,     498,     528,     477
     519,     497,     491,     522,     485,     462,     479,     503
     526,     506,     471,     467,     451,     516,     481,     493
     479,     503,     501,     497,     509,     530,     494,     478
     502,     490,     497,     519,     486,     505,     471,     460
     459,     472,     484,     464,     522,     424,     498,     467
     481,     460,     519,     548,     505,     494,     491,     507
     467,     491,     459,     495,     476,     479,     511,     480
     503,     479,     469,     472,     487,     455,     506,     457
     481,     498,     450,     469,     490,     486,     478,     492
     493,     462,     479,     474,     482,     478,     468,     458
     469,     484,     481,     495,     497,     516,     462,     493
     479,/
