SampleIdent,FeCu lotto 1282 1-023-01,/
Title1,Exported by X'Pert SW,/
Title2,Generated by User-1 in project luca.,/
DiffrType,XPERT,/
DiffrNumber,  1,/
Anode,Cu,/
LabdaAlpha1,  1.54056,/
LabdaAlpha2,  1.54439,/
RatioAlpha21,  0.50000,/
DivergenceSlit,Fixed,1/2,/
ReceivingSlit,Undefined,/
MonochromatorUsed, YES,/
GeneratorVoltage,  40,/
TubeCurrent,  30,/
FileDateTime, 16-oct-2001 10:48,/
DataAngleRange,  35.00000,  105.00000,/
ScanStepSize,  0.05000,/
ScanType,STEP,/
ScanStepTime,  5.00,/
RawScan
     293,     318,     307,     312,     294,     315,     318,     315
     330,     299,     280,     305,     322,     294,     324,     297
     277,     297,     320,     305,     298,     310,     305,     310
     318,     293,     282,     322,     301,     298,     279,     309
     319,     301,     288,     299,     293,     294,     275,     308
     342,     276,     334,     322,     302,     292,     316,     318
     323,     305,     314,     283,     300,     280,     294,     298
     309,     318,     311,     311,     318,     282,     298,     347
     330,     319,     323,     305,     333,     327,     352,     324
     316,     301,     336,     325,     318,     332,     316,     325
     328,     350,     308,     321,     308,     313,     317,     344
     330,     300,     336,     332,     343,     375,     330,     342
     322,     326,     325,     298,     352,     339,     328,     345
     342,     365,     321,     392,     351,     333,     351,     350
     344,     351,     344,     350,     324,     353,     371,     374
     364,     413,     379,     413,     388,     416,     454,     405
     456,     411,     443,     432,     454,     465,     457,     458
     535,     534,     549,     536,     624,     605,     631,     683
     794,     869,     984,    1064,    1226,    1393,    1562,    1916
    2271,    2566,    3093,    3317,    3812,    4134,    4055,    4108
    3835,    3643,    3232,    2781,    2485,    2110,    1807,    1530
    1380,    1226,    1053,     966,     862,     812,     775,     710
     668,     616,     624,     582,     571,     560,     567,     544
     510,     520,     533,     531,     518,     508,     559,     551
     492,     525,     535,     488,     453,     478,     475,     492
     433,     415,     437,     445,     440,     409,     415,     375
     336,     399,     416,     386,     407,     385,     405,     374
     371,     419,     398,     399,     378,     383,     375,     416
     352,     407,     371,     380,     355,     363,     383,     361
     386,     381,     390,     371,     394,     385,     369,     366
     367,     391,     411,     370,     389,     364,     378,     390
     404,     394,     383,     399,     404,     402,     410,     410
     399,     429,     422,     421,     412,     455,     424,     405
     415,     402,     438,     436,     425,     447,     458,     437
     502,     478,     489,     456,     514,     481,     533,     500
     599,     595,     612,     661,     602,     652,     728,     710
     729,     775,     802,     849,     837,     909,     860,     911
     881,     872,     878,     882,     859,     850,     805,     822
     844,     756,     761,     707,     712,     637,     655,     569
     573,     566,     527,     544,     546,     473,     492,     484
     447,     487,     424,     438,     423,     438,     399,     392
     430,     403,     419,     397,     408,     402,     382,     372
     387,     382,     360,     357,     418,     378,     359,     391
     382,     372,     350,     390,     334,     391,     359,     347
     366,     322,     351,     375,     402,     355,     334,     357
     368,     338,     396,     340,     341,     362,     362,     358
     344,     342,     346,     348,     348,     358,     341,     400
     368,     330,     347,     326,     363,     375,     363,     354
     355,     384,     336,     347,     338,     367,     354,     392
     390,     322,     332,     354,     360,     347,     365,     334
     371,     391,     325,     336,     358,     340,     366,     357
     373,     359,     336,     343,     384,     395,     376,     334
     332,     340,     378,     407,     350,     377,     353,     351
     324,     338,     345,     368,     391,     354,     370,     361
     362,     379,     339,     329,     360,     369,     357,     365
     338,     359,     343,     361,     350,     364,     346,     386
     359,     364,     370,     358,     324,     350,     309,     343
     342,     324,     346,     397,     350,     370,     372,     370
     391,     329,     372,     382,     404,     355,     354,     375
     369,     362,     374,     382,     343,     339,     354,     373
     382,     361,     349,     352,     358,     379,     346,     386
     369,     350,     378,     372,     372,     376,     350,     378
     382,     345,     385,     354,     385,     339,     380,     403
     368,     357,     427,     372,     356,     394,     380,     327
     371,     346,     368,     382,     367,     379,     379,     364
     383,     376,     341,     389,     336,     351,     360,     370
     395,     374,     351,     343,     360,     356,     381,     352
     363,     397,     428,     371,     403,     381,     371,     395
     354,     383,     368,     361,     387,     364,     363,     362
     331,     378,     351,     384,     357,     364,     395,     362
     391,     383,     372,     357,     380,     413,     342,     390
     394,     412,     390,     379,     403,     398,     425,     345
     397,     379,     371,     379,     395,     365,     387,     389
     360,     373,     386,     370,     376,     391,     401,     369
     387,     420,     357,     407,     418,     409,     415,     417
     368,     395,     364,     352,     364,     403,     404,     371
     364,     394,     385,     364,     404,     378,     400,     390
     421,     376,     388,     380,     377,     419,     400,     389
     392,     366,     382,     369,     363,     389,     433,     381
     396,     371,     394,     397,     391,     366,     378,     359
     379,     376,     387,     397,     367,     399,     418,     401
     381,     389,     389,     368,     409,     413,     385,     373
     398,     396,     390,     402,     426,     374,     386,     400
     386,     396,     421,     388,     402,     416,     412,     426
     390,     362,     422,     394,     421,     387,     373,     360
     370,     403,     434,     403,     425,     414,     425,     390
     387,     396,     388,     434,     400,     432,     380,     416
     402,     404,     425,     411,     389,     395,     420,     404
     420,     389,     408,     401,     389,     402,     404,     395
     390,     438,     414,     384,     404,     443,     421,     395
     420,     441,     399,     424,     446,     455,     445,     431
     426,     447,     434,     442,     418,     416,     423,     445
     443,     432,     467,     460,     434,     459,     431,     493
     455,     472,     518,     489,     519,     462,     503,     533
     571,     567,     618,     568,     596,     599,     577,     661
     676,     650,     691,     732,     706,     716,     741,     759
     680,     754,     762,     697,     720,     690,     691,     619
     685,     716,     611,     659,     633,     569,     597,     579
     549,     582,     533,     528,     488,     516,     507,     514
     521,     471,     457,     493,     513,     468,     471,     460
     477,     452,     455,     474,     444,     420,     469,     414
     391,     427,     458,     441,     419,     443,     457,     426
     436,     398,     473,     405,     423,     433,     406,     409
     407,     393,     430,     444,     442,     430,     399,     417
     440,     432,     397,     421,     424,     453,     447,     425
     418,     437,     419,     412,     414,     439,     455,     434
     376,     389,     428,     422,     413,     439,     406,     415
     408,     407,     391,     445,     443,     409,     450,     419
     450,     428,     421,     436,     427,     430,     381,     396
     386,     393,     421,     402,     421,     413,     440,     417
     412,     375,     405,     436,     426,     428,     408,     427
     414,     465,     405,     399,     448,     430,     400,     424
     389,     431,     417,     424,     428,     424,     427,     391
     442,     420,     452,     445,     426,     440,     394,     404
     460,     410,     426,     407,     446,     444,     426,     479
     413,     446,     425,     410,     470,     428,     407,     428
     442,     440,     446,     461,     453,     450,     443,     400
     444,     462,     412,     433,     441,     422,     427,     434
     438,     471,     459,     450,     436,     429,     447,     478
     455,     398,     455,     428,     466,     458,     420,     449
     412,     479,     422,     454,     472,     396,     483,     422
     456,     418,     453,     418,     457,     464,     444,     406
     419,     446,     440,     411,     448,     419,     456,     434
     444,     416,     418,     424,     439,     458,     432,     439
     435,     446,     376,     434,     460,     433,     441,     418
     465,     450,     436,     428,     428,     471,     479,     403
     452,     454,     448,     462,     466,     473,     529,     428
     472,     484,     488,     453,     480,     452,     480,     507
     460,     452,     486,     469,     421,     434,     512,     452
     472,     469,     479,     510,     467,     491,     547,     517
     460,     488,     517,     503,     532,     506,     501,     531
     512,     579,     543,     532,     512,     506,     537,     570
     582,     562,     568,     594,     612,     628,     616,     650
     634,     643,     593,     662,     702,     626,     702,     670
     726,     713,     672,     702,     715,     743,     736,     700
     692,     730,     744,     741,     690,     711,     717,     683
     706,     662,     626,     640,     612,     618,     642,     648
     575,     614,     553,     563,     569,     592,     567,     591
     577,     500,     541,     552,     524,     537,     509,     473
     505,     504,     488,     519,     505,     501,     506,     516
     479,     521,     497,     489,     498,     472,     477,     493
     478,     486,     476,     468,     510,     487,     448,     477
     494,     444,     500,     484,     426,     464,     472,     487
     469,     466,     456,     459,     442,     507,     485,     477
     487,     500,     446,     462,     487,     506,     481,     501
     494,     529,     509,     526,     480,     504,     547,     501
     482,     531,     529,     540,     560,     595,     566,     597
     535,     588,     610,     647,     639,     615,     648,     634
     661,     616,     625,     580,     622,     570,     614,     619
     578,     600,     577,     528,     515,     539,     500,     520
     557,     519,     496,     521,     498,     515,     506,     504
     513,     465,     495,     528,     455,     489,     459,     465
     472,     486,     469,     490,     485,     439,     485,     448
     467,     474,     477,     487,     500,     458,     440,     462
     487,     445,     484,     492,     440,     466,     452,     480
     483,     463,     458,     463,     473,     448,     488,     444
     467,     445,     485,     517,     452,     464,     493,     402
     468,     480,     472,     461,     440,     493,     451,     493
     453,     447,     448,     442,     435,     452,     471,     433
     475,     486,     456,     460,     467,     429,     441,     436
     423,     466,     464,     429,     450,     449,     438,     474
     463,     435,     483,     445,     473,     467,     435,     471
     500,     473,     461,     479,     465,     462,     441,     469
     457,     484,     462,     428,     497,     442,     486,     487
     492,     435,     430,     481,     439,     460,     466,     431
     472,     471,     422,     452,     477,     419,     429,     443
     445,     422,     411,     506,     489,     417,     475,     444
     452,     397,     421,     459,     456,     494,     424,     472
     426,     469,     463,     430,     463,     488,     454,     462
     469,     511,     459,     462,     496,     476,     436,     454
     416,     441,     439,     447,     437,     468,     488,     466
     431,     490,     466,     444,     451,     454,     442,     452
     427,     476,     491,     479,     420,     440,     492,     472
     466,     461,     470,     509,     446,     482,     451,     515
     465,     443,     492,     448,     450,     488,     452,     453
     429,/
