SampleIdent,FeCu lotto1251 1-011-01,/
Title1,Exported by X'Pert SW,/
Title2,Generated by User-1 in project luca.,/
DiffrType,XPERT,/
DiffrNumber,  1,/
Anode,Cu,/
LabdaAlpha1,  1.54056,/
LabdaAlpha2,  1.54439,/
RatioAlpha21,  0.50000,/
DivergenceSlit,Fixed,1/2,/
ReceivingSlit,Undefined,/
MonochromatorUsed, YES,/
GeneratorVoltage,  40,/
TubeCurrent,  30,/
FileDateTime, 14-oct-2001 9:46,/
DataAngleRange,  35.00000,  105.00000,/
ScanStepSize,  0.05000,/
ScanType,STEP,/
ScanStepTime,  5.00,/
RawScan
     412,     415,     451,     449,     423,     434,     426,     430
     447,     437,     444,     457,     455,     401,     465,     508
     483,     461,     459,     458,     448,     501,     463,     470
     503,     483,     455,     458,     441,     465,     480,     492
     472,     444,     483,     466,     446,     494,     440,     502
     435,     472,     474,     480,     443,     457,     470,     466
     432,     480,     467,     452,     436,     436,     440,     438
     468,     446,     446,     490,     439,     491,     463,     439
     456,     465,     452,     444,     451,     431,     422,     458
     426,     445,     459,     423,     443,     439,     448,     443
     446,     461,     479,     431,     432,     458,     474,     423
     488,     459,     457,     479,     475,     451,     459,     440
     444,     443,     443,     438,     455,     452,     466,     499
     424,     466,     505,     516,     496,     494,     481,     465
     479,     479,     469,     478,     487,     492,     484,     452
     489,     443,     473,     537,     467,     475,     478,     512
     471,     526,     495,     529,     575,     529,     505,     505
     511,     516,     501,     536,     553,     565,     601,     575
     590,     604,     615,     682,     693,     746,     719,     764
     763,     907,     899,     938,    1075,    1018,    1161,    1276
    1505,    1591,    1830,    2066,    2372,    2460,    2576,    2341
    2202,    1935,    1703,    1492,    1294,    1114,     993,    1009
    1031,     988,     933,     925,    1008,     979,    1095,    1194
    1241,    1419,    1620,    1916,    2235,    2784,    3521,    4211
    4645,    4887,    4396,    3909,    3188,    2603,    1990,    1594
    1444,    1162,    1021,     916,     915,     783,     751,     712
     660,     648,     593,     620,     591,     593,     560,     528
     516,     543,     525,     513,     532,     521,     509,     478
     491,     540,     512,     495,     525,     517,     492,     514
     547,     492,     485,     497,     536,     474,     472,     485
     500,     482,     484,     467,     451,     516,     455,     482
     456,     492,     500,     495,     512,     524,     513,     515
     520,     484,     478,     484,     466,     510,     488,     472
     530,     505,     510,     509,     501,     495,     542,     494
     519,     499,     531,     499,     521,     532,     502,     475
     495,     533,     547,     486,     539,     538,     565,     598
     582,     568,     599,     554,     581,     604,     687,     620
     663,     648,     710,     738,     735,     789,     845,     877
     909,     931,     962,     988,    1015,    1012,     944,     916
     913,     817,     810,     677,     696,     696,     674,     669
     678,     566,     542,     524,     558,     522,     533,     525
     492,     524,     458,     514,     505,     507,     474,     490
     506,     454,     459,     461,     502,     457,     445,     508
     489,     465,     534,     508,     454,     440,     461,     462
     489,     504,     452,     502,     445,     471,     500,     498
     468,     481,     480,     458,     476,     440,     491,     495
     471,     448,     496,     457,     464,     447,     474,     465
     468,     473,     465,     507,     469,     463,     493,     454
     478,     502,     482,     454,     466,     477,     505,     472
     458,     434,     457,     469,     475,     494,     506,     444
     453,     435,     454,     462,     460,     498,     462,     464
     472,     500,     461,     482,     438,     506,     493,     469
     467,     511,     470,     458,     470,     476,     510,     467
     459,     443,     462,     478,     399,     438,     436,     483
     472,     447,     520,     465,     463,     492,     489,     469
     501,     503,     476,     439,     463,     487,     464,     528
     437,     462,     502,     494,     482,     434,     459,     465
     432,     484,     507,     476,     509,     457,     467,     469
     466,     489,     471,     504,     451,     422,     458,     466
     469,     505,     520,     479,     487,     479,     462,     438
     444,     489,     439,     477,     497,     493,     490,     495
     473,     495,     495,     469,     446,     466,     446,     503
     488,     467,     445,     475,     524,     465,     482,     461
     478,     480,     486,     489,     487,     441,     484,     487
     493,     507,     499,     456,     477,     474,     487,     466
     491,     466,     506,     474,     510,     471,     465,     477
     496,     483,     480,     510,     482,     505,     461,     462
     491,     460,     499,     486,     521,     471,     485,     468
     477,     477,     481,     493,     479,     480,     458,     504
     516,     497,     487,     490,     488,     488,     525,     493
     484,     486,     459,     503,     496,     491,     468,     472
     465,     503,     522,     485,     471,     519,     508,     495
     534,     524,     486,     553,     510,     530,     531,     492
     566,     562,     616,     634,     607,     612,     614,     685
     743,     763,     777,     802,     881,     974,     981,    1011
     988,     982,     945,     907,     879,     831,     752,     791
     679,     662,     702,     643,     636,     614,     583,     604
     567,     555,     534,     513,     543,     515,     501,     495
     535,     512,     496,     546,     494,     492,     519,     497
     482,     489,     498,     531,     487,     470,     514,     434
     501,     469,     505,     516,     471,     482,     476,     463
     509,     459,     484,     475,     492,     464,     496,     471
     489,     493,     526,     491,     483,     499,     502,     519
     493,     437,     515,     494,     481,     525,     500,     468
     486,     506,     487,     485,     452,     474,     465,     477
     482,     483,     464,     456,     475,     491,     456,     495
     468,     501,     470,     460,     456,     500,     502,     492
     431,     503,     502,     472,     510,     508,     490,     497
     469,     483,     484,     508,     482,     473,     490,     488
     480,     488,     482,     436,     474,     501,     490,     500
     490,     468,     471,     505,     458,     478,     530,     454
     519,     508,     503,     508,     517,     487,     505,     515
     542,     525,     509,     512,     513,     493,     495,     503
     533,     487,     557,     503,     530,     568,     527,     506
     555,     505,     531,     476,     519,     565,     513,     532
     556,     575,     558,     560,     558,     550,     568,     574
     568,     568,     613,     626,     605,     651,     642,     672
     699,     678,     757,     761,     790,     842,     785,     803
     824,     715,     706,     724,     663,     693,     683,     660
     612,     588,     579,     527,     584,     532,     546,     566
     600,     503,     539,     549,     528,     534,     540,     513
     543,     493,     507,     518,     535,     508,     482,     499
     526,     514,     449,     502,     504,     516,     522,     534
     491,     512,     530,     507,     502,     520,     538,     495
     489,     493,     512,     480,     484,     518,     528,     550
     487,     497,     544,     506,     473,     526,     461,     517
     503,     510,     506,     495,     489,     480,     528,     493
     554,     500,     512,     478,     486,     456,     512,     508
     492,     549,     493,     528,     547,     541,     496,     477
     538,     494,     473,     450,     503,     526,     537,     498
     494,     510,     488,     538,     481,     532,     497,     498
     521,     524,     479,     487,     510,     478,     475,     522
     482,     515,     495,     561,     492,     513,     490,     525
     531,     553,     493,     511,     501,     539,     556,     505
     477,     550,     516,     518,     519,     476,     542,     550
     541,     553,     522,     554,     558,     520,     583,     558
     585,     596,     605,     632,     641,     617,     662,     720
     724,     715,     830,     882,     872,    1002,    1090,    1176
    1210,    1323,    1269,    1316,    1237,    1189,    1158,    1062
    1021,     965,     902,     831,     775,     797,     711,     686
     639,     649,     632,     596,     590,     640,     524,     555
     547,     544,     524,     529,     528,     587,     546,     527
     538,     544,     488,     544,     552,     479,     478,     510
     500,     494,     542,     520,     512,     528,     509,     525
     513,     493,     492,     524,     492,     524,     500,     518
     504,     496,     527,     525,     535,     500,     477,     523
     508,     517,     500,     516,     535,     535,     554,     536
     510,     488,     503,     480,     519,     515,     497,     534
     488,     563,     514,     496,     507,     500,     473,     507
     518,     529,     496,     519,     531,     526,     500,     533
     500,     511,     520,     535,     493,     503,     535,     509
     585,     507,     538,     525,     495,     575,     512,     513
     519,     527,     503,     518,     541,     521,     529,     501
     527,     546,     554,     541,     537,     589,     542,     553
     557,     565,     569,     594,     610,     598,     569,     570
     583,     572,     635,     551,     582,     607,     621,     627
     648,     702,     663,     691,     723,     742,     753,     765
     771,     783,     757,     743,     753,     768,     761,     706
     694,     655,     644,     655,     635,     651,     625,     615
     629,     591,     598,     551,     575,     581,     543,     590
     520,     596,     591,     546,     545,     536,     527,     515
     534,     567,     533,     554,     559,     527,     499,     467
     473,     578,     534,     546,     534,     500,     544,     534
     495,     508,     522,     530,     549,     526,     484,     507
     549,     520,     516,     516,     515,     527,     475,     581
     513,     542,     514,     537,     539,     554,     509,     452
     552,     517,     484,     524,     500,     511,     530,     508
     545,     540,     533,     526,     558,     512,     518,     536
     559,     541,     477,     565,     518,     578,     529,     576
     572,     563,     537,     560,     589,     568,     582,     618
     618,     621,     592,     607,     566,     631,     576,     578
     605,     567,     590,     594,     591,     534,     512,     563
     548,     553,     541,     523,     508,     512,     518,     504
     515,     536,     545,     551,     531,     520,     495,     499
     490,     553,     532,     500,     513,     549,     505,     539
     493,     484,     543,     507,     527,     553,     523,     542
     494,     540,     532,     536,     502,     524,     532,     553
     525,     530,     539,     537,     556,     528,     536,     563
     553,     560,     590,     578,     584,     588,     606,     600
     645,     674,     686,     695,     697,     729,     661,     695
     731,     724,     691,     683,     682,     639,     658,     629
     612,     609,     653,     578,     611,     520,     570,     500
     542,     574,     571,     557,     534,     518,     514,     522
     549,     512,     539,     515,     505,     570,     507,     529
     509,     527,     477,     493,     530,     523,     474,     538
     528,     510,     532,     498,     504,     536,     548,     536
     493,     553,     532,     477,     528,     492,     523,     548
     519,     498,     512,     515,     479,     514,     497,     502
     543,     501,     520,     492,     549,     487,     531,     510
     499,     537,     528,     518,     500,     503,     510,     524
     507,     539,     506,     523,     489,     515,     484,     489
     477,     478,     503,     543,     487,     522,     489,     519
     490,     533,     518,     526,     526,     512,     498,     488
     545,     513,     498,     510,     533,     545,     457,     481
     504,     530,     511,     545,     521,     515,     502,     480
     496,/
