SampleIdent,FeCu lotto 1265 1-017-01,/
Title1,Exported by X'Pert SW,/
Title2,Generated by User-1 in project luca.,/
DiffrType,XPERT,/
DiffrNumber,  1,/
Anode,Cu,/
LabdaAlpha1,  1.54056,/
LabdaAlpha2,  1.54439,/
RatioAlpha21,  0.50000,/
DivergenceSlit,Fixed,1/2,/
ReceivingSlit,Undefined,/
MonochromatorUsed, YES,/
GeneratorVoltage,  40,/
TubeCurrent,  30,/
FileDateTime, 15-oct-2001 9:04,/
DataAngleRange,  35.00000,  105.00000,/
ScanStepSize,  0.05000,/
ScanType,STEP,/
ScanStepTime,  5.00,/
RawScan
     302,     307,     290,     286,     291,     289,     277,     296
     318,     300,     289,     283,     269,     289,     333,     304
     305,     312,     280,     281,     280,     268,     311,     280
     290,     285,     337,     300,     293,     273,     290,     286
     289,     296,     311,     274,     325,     291,     281,     277
     278,     294,     317,     267,     301,     307,     304,     282
     331,     269,     286,     300,     278,     302,     263,     298
     260,     308,     292,     300,     321,     278,     324,     276
     300,     291,     316,     295,     308,     300,     324,     308
     278,     308,     293,     301,     329,     299,     293,     304
     311,     308,     299,     305,     310,     295,     303,     306
     288,     320,     347,     323,     311,     313,     294,     342
     323,     306,     302,     290,     318,     324,     334,     337
     282,     326,     301,     347,     340,     314,     345,     353
     350,     344,     338,     366,     357,     366,     390,     358
     396,     389,     380,     365,     371,     385,     397,     387
     442,     383,     445,     460,     397,     429,     457,     513
     492,     501,     564,     582,     573,     602,     689,     782
     824,     909,    1005,    1145,    1242,    1399,    1577,    1644
    1842,    1991,    2090,    2194,    2030,    2062,    2035,    1965
    1777,    1658,    1364,    1327,    1168,    1037,     992,     875
     799,     757,     710,     658,     678,     606,     572,     542
     500,     536,     491,     532,     449,     446,     464,     478
     433,     426,     436,     396,     473,     420,     441,     406
     412,     435,     411,     416,     430,     381,     406,     375
     370,     389,     360,     391,     400,     376,     405,     393
     378,     368,     388,     359,     330,     394,     393,     359
     381,     356,     360,     382,     347,     390,     354,     368
     329,     380,     379,     367,     391,     388,     392,     352
     353,     349,     347,     371,     383,     351,     352,     381
     336,     355,     355,     403,     378,     383,     383,     389
     357,     358,     365,     384,     385,     353,     405,     374
     396,     386,     399,     371,     369,     422,     427,     397
     413,     433,     455,     443,     432,     464,     429,     434
     480,     513,     505,     496,     477,     504,     528,     534
     525,     520,     546,     546,     603,     644,     614,     636
     661,     660,     664,     673,     607,     681,     663,     693
     611,     628,     641,     633,     593,     633,     577,     606
     604,     549,     561,     537,     506,     515,     536,     470
     456,     432,     481,     442,     431,     459,     410,     417
     444,     416,     375,     396,     392,     358,     403,     380
     399,     358,     377,     366,     405,     371,     375,     376
     374,     390,     353,     353,     379,     381,     348,     370
     339,     356,     331,     364,     361,     342,     337,     303
     359,     338,     318,     338,     348,     325,     323,     310
     320,     339,     289,     346,     326,     334,     323,     290
     302,     300,     364,     347,     325,     306,     299,     349
     361,     329,     344,     316,     337,     345,     347,     344
     317,     352,     308,     324,     362,     350,     314,     330
     307,     330,     312,     316,     332,     335,     319,     310
     309,     362,     334,     322,     349,     303,     300,     364
     338,     341,     337,     300,     354,     323,     332,     338
     342,     300,     332,     338,     348,     328,     330,     333
     330,     355,     336,     332,     328,     322,     325,     347
     337,     331,     329,     338,     363,     318,     317,     347
     335,     326,     347,     353,     307,     299,     326,     356
     324,     319,     361,     312,     342,     341,     366,     346
     319,     348,     316,     333,     363,     382,     327,     323
     317,     359,     350,     330,     305,     342,     328,     362
     338,     348,     335,     340,     295,     362,     327,     359
     353,     345,     330,     280,     328,     336,     346,     335
     312,     323,     355,     340,     346,     317,     337,     324
     359,     328,     317,     354,     349,     365,     333,     329
     359,     334,     304,     358,     353,     327,     335,     330
     328,     361,     342,     341,     356,     330,     335,     362
     350,     382,     341,     337,     368,     334,     337,     351
     361,     353,     331,     355,     375,     326,     340,     366
     354,     305,     370,     379,     334,     329,     372,     375
     309,     324,     379,     321,     335,     367,     359,     312
     350,     367,     367,     337,     351,     316,     339,     307
     343,     343,     341,     353,     388,     349,     360,     338
     337,     379,     344,     351,     313,     329,     344,     329
     368,     300,     353,     317,     346,     332,     348,     320
     351,     361,     327,     358,     315,     313,     370,     363
     331,     370,     375,     385,     342,     378,     331,     355
     329,     328,     334,     374,     385,     377,     367,     330
     359,     365,     362,     338,     369,     332,     368,     370
     335,     352,     327,     331,     340,     347,     362,     372
     312,     356,     394,     327,     350,     339,     358,     336
     342,     381,     343,     363,     360,     383,     379,     394
     352,     339,     381,     359,     358,     353,     322,     359
     371,     383,     356,     386,     329,     352,     338,     346
     359,     325,     369,     365,     335,     426,     353,     362
     344,     356,     368,     372,     394,     373,     368,     355
     350,     325,     385,     344,     336,     383,     391,     325
     384,     371,     370,     375,     405,     359,     386,     368
     344,     386,     366,     401,     400,     364,     370,     359
     378,     377,     350,     404,     346,     353,     374,     420
     406,     372,     363,     398,     380,     403,     357,     396
     402,     385,     384,     392,     347,     384,     373,     359
     417,     419,     400,     378,     370,     410,     415,     398
     415,     377,     402,     424,     382,     439,     440,     461
     429,     412,     427,     454,     460,     439,     439,     437
     481,     471,     492,     531,     507,     531,     458,     495
     514,     530,     578,     527,     567,     561,     543,     579
     572,     618,     600,     610,     569,     612,     544,     599
     614,     609,     590,     599,     539,     555,     538,     561
     561,     531,     553,     519,     485,     527,     500,     517
     471,     463,     434,     466,     460,     451,     436,     451
     439,     433,     420,     441,     451,     397,     445,     383
     427,     401,     408,     409,     378,     422,     411,     411
     427,     425,     415,     422,     363,     449,     418,     358
     377,     394,     365,     360,     383,     374,     454,     382
     356,     373,     391,     397,     382,     366,     388,     369
     408,     388,     400,     393,     406,     358,     374,     384
     353,     417,     384,     387,     407,     382,     410,     414
     397,     391,     385,     386,     381,     379,     383,     364
     422,     384,     363,     384,     393,     381,     366,     383
     366,     377,     384,     404,     387,     359,     364,     406
     402,     376,     393,     412,     396,     397,     434,     379
     377,     390,     376,     392,     405,     353,     371,     409
     361,     365,     360,     401,     386,     389,     399,     419
     408,     408,     366,     387,     383,     383,     407,     414
     348,     395,     424,     421,     392,     390,     367,     400
     389,     396,     355,     386,     374,     380,     376,     378
     416,     388,     388,     397,     387,     391,     387,     402
     419,     397,     340,     395,     390,     388,     393,     417
     372,     386,     402,     354,     448,     403,     394,     383
     369,     441,     389,     385,     389,     412,     388,     430
     415,     401,     385,     409,     412,     375,     416,     423
     412,     394,     408,     391,     397,     401,     393,     412
     387,     404,     382,     392,     401,     401,     403,     419
     390,     373,     390,     393,     406,     375,     427,     376
     391,     418,     440,     416,     410,     420,     445,     415
     414,     412,     412,     395,     401,     430,     434,     414
     405,     424,     444,     412,     391,     404,     400,     451
     446,     419,     398,     438,     413,     418,     419,     448
     431,     461,     426,     430,     423,     470,     428,     409
     421,     449,     438,     402,     447,     441,     458,     466
     427,     465,     481,     460,     494,     450,     484,     462
     463,     513,     511,     501,     464,     494,     547,     490
     553,     475,     491,     523,     499,     529,     525,     553
     530,     551,     516,     549,     552,     552,     536,     569
     583,     600,     580,     590,     585,     566,     556,     598
     591,     587,     569,     572,     580,     591,     574,     580
     574,     569,     584,     581,     547,     580,     537,     530
     523,     560,     590,     529,     500,     536,     569,     512
     476,     519,     508,     460,     496,     494,     432,     445
     494,     436,     472,     437,     438,     468,     475,     486
     422,     481,     455,     461,     434,     490,     434,     491
     446,     475,     408,     444,     484,     445,     410,     431
     450,     425,     468,     408,     415,     450,     447,     388
     424,     428,     438,     398,     393,     447,     416,     463
     457,     447,     450,     422,     466,     434,     393,     437
     413,     435,     481,     452,     447,     443,     434,     483
     438,     499,     488,     489,     476,     482,     495,     505
     521,     485,     517,     506,     527,     513,     497,     495
     479,     508,     516,     496,     544,     466,     539,     498
     495,     475,     514,     479,     448,     453,     467,     503
     503,     475,     447,     472,     466,     453,     434,     437
     412,     446,     457,     421,     458,     442,     442,     429
     463,     422,     377,     388,     388,     428,     420,     401
     463,     445,     421,     427,     457,     388,     445,     394
     406,     418,     441,     405,     407,     437,     390,     409
     420,     416,     389,     417,     415,     404,     421,     435
     426,     411,     415,     415,     426,     458,     398,     435
     400,     366,     390,     401,     429,     407,     411,     407
     433,     396,     400,     431,     412,     444,     428,     399
     405,     432,     413,     411,     429,     392,     422,     391
     387,     394,     413,     386,     401,     408,     388,     374
     433,     418,     438,     395,     450,     397,     426,     411
     406,     405,     371,     403,     416,     396,     399,     411
     360,     377,     409,     428,     425,     403,     407,     417
     422,     407,     434,     410,     466,     427,     403,     402
     406,     347,     388,     402,     437,     398,     437,     397
     401,     427,     387,     398,     427,     434,     400,     411
     392,     413,     415,     433,     386,     395,     415,     410
     433,     413,     452,     411,     418,     412,     403,     395
     383,     407,     401,     447,     446,     433,     416,     414
     398,     409,     407,     393,     386,     420,     456,     419
     385,     394,     458,     398,     399,     409,     409,     445
     454,     428,     417,     460,     446,     394,     441,     406
     427,     383,     405,     412,     426,     432,     433,     413
     455,     456,     440,     425,     413,     409,     440,     422
     409,     426,     432,     416,     465,     406,     397,     417
     420,/
