SampleIdent,FeCu lotto 1222 1-036-01,/
Title1,Exported by X'Pert SW,/
Title2,Generated by User-1 in project luca.,/
DiffrType,XPERT,/
DiffrNumber,  1,/
Anode,Cu,/
LabdaAlpha1,  1.54056,/
LabdaAlpha2,  1.54439,/
RatioAlpha21,  0.50000,/
DivergenceSlit,Fixed,1/2,/
ReceivingSlit,Undefined,/
MonochromatorUsed, YES,/
GeneratorVoltage,  40,/
TubeCurrent,  30,/
FileDateTime, 11-oct-2001 17:14,/
DataAngleRange,  35.00000,  105.00000,/
ScanStepSize,  0.05000,/
ScanType,STEP,/
ScanStepTime,  5.00,/
RawScan
     378,     383,     343,     379,     401,     386,     400,     366
     359,     393,     426,     384,     383,     383,     334,     382
     397,     373,     405,     390,     397,     380,     358,     394
     361,     391,     407,     414,     396,     377,     350,     393
     373,     384,     388,     363,     386,     405,     404,     377
     434,     385,     379,     374,     422,     363,     396,     398
     381,     387,     418,     396,     409,     423,     379,     383
     368,     414,     426,     380,     378,     382,     421,     390
     415,     405,     370,     455,     390,     408,     385,     431
     385,     408,     397,     406,     378,     398,     377,     423
     426,     403,     385,     395,     393,     401,     437,     408
     409,     431,     394,     408,     415,     425,     406,     414
     412,     393,     420,     421,     408,     408,     414,     405
     421,     425,     426,     420,     449,     443,     408,     446
     399,     473,     419,     445,     428,     443,     426,     429
     464,     475,     479,     464,     500,     493,     495,     496
     455,     535,     502,     502,     471,     497,     549,     521
     505,     560,     561,     612,     626,     601,     654,     676
     677,     696,     780,     832,     902,     940,    1043,    1077
    1257,    1322,    1433,    1637,    1728,    1785,    1861,    2011
    2060,    1967,    1973,    1860,    1764,    1668,    1641,    1426
    1396,    1354,    1204,    1127,    1200,    1123,    1158,    1132
    1068,    1066,    1135,    1097,    1159,    1302,    1253,    1300
    1343,    1388,    1530,    1559,    1535,    1579,    1652,    1671
    1646,    1594,    1571,    1455,    1414,    1246,    1164,    1071
    1013,    1025,     891,     855,     812,     782,     736,     719
     742,     644,     589,     570,     636,     577,     550,     585
     499,     552,     554,     496,     554,     499,     459,     518
     502,     529,     516,     497,     509,     513,     494,     485
     456,     485,     496,     494,     518,     499,     510,     516
     466,     473,     471,     507,     470,     468,     477,     457
     489,     452,     468,     496,     460,     477,     518,     518
     455,     433,     538,     455,     471,     475,     462,     484
     460,     478,     497,     496,     507,     470,     485,     536
     541,     494,     512,     516,     541,     538,     512,     527
     539,     551,     573,     565,     637,     632,     606,     606
     656,     644,     680,     699,     639,     713,     663,     734
     730,     706,     700,     714,     757,     708,     698,     757
     716,     695,     688,     659,     659,     667,     613,     634
     583,     577,     627,     607,     540,     570,     559,     523
     528,     536,     475,     490,     511,     479,     501,     501
     489,     468,     469,     490,     467,     451,     475,     450
     481,     435,     456,     493,     412,     439,     449,     417
     431,     456,     467,     440,     455,     471,     454,     410
     444,     418,     421,     474,     463,     441,     452,     478
     409,     416,     449,     427,     428,     398,     403,     458
     405,     427,     419,     431,     439,     435,     459,     429
     411,     424,     413,     441,     416,     418,     442,     402
     440,     423,     405,     453,     382,     428,     397,     434
     418,     387,     426,     392,     439,     435,     419,     438
     432,     419,     425,     384,     416,     378,     404,     413
     395,     399,     388,     424,     444,     428,     405,     385
     381,     411,     434,     447,     430,     429,     422,     374
     429,     392,     424,     389,     403,     407,     427,     402
     447,     429,     410,     404,     416,     418,     401,     401
     412,     440,     409,     411,     417,     443,     427,     426
     395,     422,     402,     436,     405,     435,     434,     426
     428,     420,     472,     384,     437,     411,     390,     403
     421,     440,     428,     426,     463,     418,     428,     449
     387,     421,     410,     430,     355,     389,     394,     378
     407,     405,     394,     412,     413,     446,     435,     483
     399,     432,     441,     439,     459,     485,     420,     433
     422,     442,     418,     439,     414,     423,     428,     418
     423,     383,     402,     421,     422,     414,     421,     429
     425,     439,     425,     451,     426,     458,     431,     472
     432,     439,     424,     406,     390,     440,     429,     449
     464,     417,     475,     438,     410,     414,     409,     425
     427,     445,     439,     385,     390,     442,     421,     454
     410,     422,     455,     429,     417,     437,     444,     417
     456,     469,     425,     454,     421,     427,     446,     448
     445,     424,     458,     430,     417,     470,     473,     454
     431,     434,     442,     469,     440,     420,     477,     488
     469,     417,     466,     495,     454,     493,     512,     488
     531,     453,     498,     468,     517,     480,     502,     520
     513,     487,     500,     482,     470,     521,     513,     526
     517,     524,     534,     530,     520,     547,     533,     480
     528,     518,     513,     501,     485,     504,     473,     497
     535,     487,     457,     498,     448,     454,     462,     439
     508,     452,     438,     459,     468,     488,     445,     415
     471,     416,     490,     473,     491,     441,     428,     416
     456,     425,     478,     451,     458,     482,     426,     465
     435,     464,     455,     448,     481,     452,     424,     447
     471,     405,     396,     433,     454,     441,     459,     452
     450,     411,     431,     434,     422,     462,     456,     462
     434,     442,     446,     412,     392,     433,     436,     440
     453,     453,     426,     436,     460,     441,     460,     473
     459,     437,     426,     473,     435,     449,     406,     431
     436,     432,     440,     464,     461,     470,     444,     481
     437,     424,     416,     470,     440,     430,     439,     442
     456,     454,     455,     457,     468,     454,     437,     453
     465,     495,     452,     510,     472,     458,     461,     490
     453,     431,     512,     426,     457,     437,     481,     487
     475,     489,     503,     501,     485,     465,     478,     461
     488,     506,     547,     494,     480,     525,     496,     499
     512,     528,     479,     498,     539,     578,     563,     548
     552,     590,     624,     580,     603,     560,     579,     639
     620,     634,     626,     582,     604,     642,     669,     616
     635,     645,     599,     621,     630,     630,     631,     621
     601,     605,     546,     545,     525,     539,     537,     515
     539,     509,     536,     512,     535,     484,     501,     525
     532,     478,     456,     474,     492,     470,     457,     497
     513,     475,     480,     462,     482,     453,     459,     482
     502,     449,     495,     477,     431,     474,     461,     450
     440,     503,     511,     460,     458,     472,     481,     486
     452,     473,     471,     500,     511,     458,     476,     448
     479,     453,     471,     490,     461,     467,     468,     473
     451,     443,     485,     474,     469,     469,     471,     479
     468,     464,     461,     460,     449,     486,     458,     478
     465,     474,     484,     432,     467,     466,     472,     396
     447,     469,     462,     487,     480,     483,     450,     448
     449,     438,     507,     486,     464,     510,     472,     445
     539,     459,     471,     477,     495,     512,     451,     485
     485,     497,     504,     514,     459,     474,     503,     535
     461,     510,     474,     511,     451,     481,     498,     508
     512,     526,     480,     508,     496,     511,     544,     544
     505,     505,     561,     547,     549,     525,     577,     528
     543,     568,     561,     584,     582,     594,     641,     642
     659,     613,     643,     625,     646,     662,     659,     669
     640,     671,     636,     695,     711,     647,     640,     634
     591,     617,     639,     607,     606,     630,     617,     572
     590,     572,     538,     576,     533,     500,     537,     515
     493,     526,     571,     495,     498,     512,     525,     528
     508,     529,     513,     500,     561,     536,     467,     510
     490,     506,     491,     480,     529,     521,     494,     501
     515,     499,     518,     530,     491,     504,     506,     455
     465,     496,     474,     513,     502,     468,     507,     485
     450,     512,     484,     456,     505,     483,     492,     480
     471,     493,     482,     519,     492,     475,     503,     532
     537,     492,     481,     488,     499,     511,     463,     485
     526,     539,     484,     470,     523,     540,     544,     442
     530,     492,     508,     548,     546,     523,     485,     481
     478,     514,     486,     496,     503,     528,     541,     558
     575,     514,     521,     554,     542,     531,     561,     512
     539,     594,     571,     536,     583,     604,     591,     624
     638,     578,     599,     623,     615,     593,     551,     574
     643,     598,     602,     619,     605,     558,     595,     631
     633,     622,     628,     649,     612,     625,     598,     586
     614,     594,     618,     545,     556,     548,     520,     589
     540,     591,     521,     548,     534,     507,     553,     550
     544,     526,     519,     548,     507,     505,     500,     556
     516,     534,     497,     559,     509,     483,     524,     526
     503,     497,     523,     521,     524,     521,     483,     482
     481,     488,     496,     516,     476,     479,     473,     458
     493,     509,     483,     478,     528,     503,     505,     476
     464,     508,     472,     493,     488,     499,     528,     471
     533,     531,     482,     505,     504,     502,     522,     502
     519,     518,     504,     506,     561,     534,     538,     502
     531,     515,     523,     554,     504,     536,     541,     555
     532,     585,     609,     552,     529,     574,     558,     555
     579,     539,     545,     528,     505,     587,     558,     515
     556,     552,     506,     511,     511,     527,     479,     479
     521,     519,     483,     529,     504,     468,     514,     495
     502,     456,     525,     489,     469,     481,     489,     452
     479,     517,     470,     487,     499,     483,     489,     502
     500,     499,     503,     530,     504,     459,     493,     490
     492,     494,     466,     513,     500,     508,     519,     499
     494,     475,     503,     484,     521,     503,     477,     476
     469,     507,     501,     516,     499,     540,     539,     500
     556,     515,     510,     549,     490,     531,     558,     529
     531,     533,     538,     560,     554,     508,     496,     537
     557,     541,     499,     520,     506,     505,     544,     543
     500,     505,     534,     519,     495,     478,     570,     491
     505,     512,     513,     527,     504,     508,     479,     515
     522,     482,     465,     518,     493,     492,     487,     489
     465,     501,     464,     477,     468,     466,     455,     465
     505,     461,     441,     506,     439,     506,     469,     490
     492,     500,     501,     461,     495,     478,     522,     471
     477,     460,     492,     491,     475,     488,     488,     477
     480,     473,     482,     481,     468,     500,     485,     455
     466,     510,     472,     493,     466,     484,     513,     491
     459,     485,     479,     476,     493,     455,     485,     520
     493,     498,     503,     449,     484,     486,     505,     485
     511,     495,     513,     501,     474,     478,     479,     497
     484,     502,     445,     501,     469,     492,     505,     494
     468,     500,     458,     518,     449,     466,     504,     486
     472,/
