SampleIdent,FeCu lotto 1262 1-018-01,/
Title1,Exported by X'Pert SW,/
Title2,Generated by User-1 in project luca.,/
DiffrType,XPERT,/
DiffrNumber,  1,/
Anode,Cu,/
LabdaAlpha1,  1.54056,/
LabdaAlpha2,  1.54439,/
RatioAlpha21,  0.50000,/
DivergenceSlit,Fixed,1/2,/
ReceivingSlit,Undefined,/
MonochromatorUsed, YES,/
GeneratorVoltage,  40,/
TubeCurrent,  30,/
FileDateTime, 14-oct-2001 19:12,/
DataAngleRange,  35.00000,  105.00000,/
ScanStepSize,  0.05000,/
ScanType,STEP,/
ScanStepTime,  5.00,/
RawScan
     496,     485,     502,     497,     437,     498,     465,     500
     525,     468,     495,     475,     500,     478,     476,     498
     452,     476,     466,     468,     469,     491,     462,     483
     515,     544,     488,     466,     471,     514,     494,     477
     497,     486,     482,     474,     485,     473,     536,     486
     544,     508,     487,     459,     493,     518,     499,     461
     498,     496,     495,     500,     464,     459,     466,     499
     497,     514,     485,     493,     459,     494,     481,     512
     456,     489,     511,     544,     509,     476,     466,     505
     490,     514,     476,     501,     514,     501,     534,     483
     487,     461,     523,     485,     481,     483,     480,     467
     473,     473,     530,     501,     547,     528,     468,     499
     504,     519,     520,     522,     515,     533,     486,     555
     535,     490,     504,     530,     534,     535,     525,     490
     531,     486,     557,     533,     549,     512,     552,     567
     548,     513,     579,     542,     523,     563,     567,     603
     587,     598,     614,     652,     593,     618,     638,     646
     676,     651,     694,     700,     657,     775,     776,     705
     795,     828,     891,     928,     971,     994,    1119,    1098
    1249,    1293,    1384,    1479,    1567,    1616,    1736,    1790
    1847,    1926,    1907,    2022,    1941,    2030,    1850,    1786
    1701,    1609,    1560,    1479,    1395,    1394,    1328,    1325
    1440,    1366,    1391,    1434,    1473,    1577,    1745,    1823
    1943,    2071,    2226,    2563,    2675,    2988,    3025,    3166
    3182,    3184,    3042,    2894,    2700,    2283,    2052,    1836
    1646,    1543,    1331,    1239,    1159,    1032,    1041,     910
     851,     834,     817,     789,     780,     754,     688,     631
     679,     718,     643,     648,     641,     630,     631,     594
     608,     591,     591,     590,     567,     603,     611,     586
     565,     566,     578,     519,     592,     554,     558,     538
     595,     575,     593,     541,     573,     538,     552,     552
     533,     574,     608,     558,     579,     555,     583,     592
     543,     558,     593,     573,     573,     550,     545,     562
     570,     601,     586,     556,     537,     580,     563,     571
     557,     586,     545,     621,     572,     600,     561,     620
     631,     651,     629,     668,     673,     667,     682,     701
     701,     706,     716,     689,     725,     724,     774,     716
     746,     813,     720,     792,     794,     818,     864,     789
     803,     834,     825,     806,     841,     817,     777,     788
     740,     718,     711,     682,     727,     664,     623,     622
     637,     627,     611,     618,     570,     606,     581,     548
     544,     538,     533,     563,     538,     519,     566,     550
     510,     509,     520,     516,     529,     531,     543,     531
     494,     505,     539,     507,     484,     522,     541,     482
     491,     505,     502,     507,     513,     469,     472,     496
     504,     517,     484,     472,     489,     539,     501,     483
     529,     495,     500,     459,     479,     499,     470,     467
     488,     528,     484,     464,     486,     480,     520,     514
     471,     494,     448,     459,     498,     509,     476,     508
     521,     458,     537,     485,     502,     450,     497,     460
     484,     529,     462,     470,     466,     467,     496,     466
     543,     473,     491,     495,     465,     442,     470,     524
     513,     513,     492,     513,     515,     535,     478,     479
     494,     504,     476,     493,     506,     500,     489,     508
     520,     507,     496,     505,     495,     473,     498,     487
     479,     502,     488,     520,     464,     490,     449,     553
     537,     474,     496,     500,     501,     498,     514,     508
     499,     492,     492,     506,     499,     474,     500,     490
     486,     484,     522,     520,     481,     495,     470,     536
     519,     504,     511,     473,     465,     464,     502,     518
     522,     511,     500,     527,     478,     461,     473,     465
     464,     512,     473,     517,     497,     495,     498,     461
     522,     528,     501,     531,     518,     472,     483,     484
     533,     529,     502,     494,     493,     482,     518,     489
     478,     463,     468,     459,     500,     516,     504,     534
     480,     512,     485,     497,     484,     498,     459,     530
     469,     499,     484,     515,     508,     490,     475,     499
     447,     481,     487,     448,     497,     508,     463,     489
     521,     468,     503,     501,     494,     533,     534,     509
     478,     477,     507,     465,     530,     488,     462,     541
     485,     474,     521,     507,     501,     521,     537,     514
     512,     502,     552,     529,     510,     557,     503,     525
     529,     584,     564,     581,     602,     619,     534,     577
     594,     569,     610,     576,     593,     621,     614,     606
     624,     631,     664,     695,     685,     700,     714,     677
     725,     754,     741,     704,     712,     700,     676,     673
     634,     613,     609,     617,     634,     597,     645,     565
     572,     545,     549,     554,     578,     534,     546,     525
     559,     536,     513,     550,     539,     512,     559,     516
     519,     534,     548,     522,     516,     517,     534,     526
     508,     534,     504,     466,     558,     515,     495,     526
     460,     478,     490,     494,     512,     503,     454,     498
     461,     487,     504,     518,     535,     503,     494,     508
     473,     507,     496,     483,     481,     495,     531,     538
     516,     509,     507,     472,     505,     499,     501,     504
     534,     530,     486,     511,     544,     528,     546,     455
     505,     515,     458,     484,     533,     500,     454,     492
     497,     484,     488,     487,     471,     495,     524,     508
     518,     514,     525,     536,     511,     494,     521,     517
     516,     508,     486,     545,     504,     502,     533,     457
     536,     518,     533,     481,     522,     534,     485,     469
     498,     517,     508,     520,     526,     568,     516,     529
     494,     562,     549,     522,     570,     536,     519,     495
     567,     536,     533,     521,     562,     559,     550,     559
     565,     565,     576,     563,     573,     606,     594,     601
     606,     596,     624,     647,     665,     606,     637,     615
     673,     619,     633,     685,     605,     674,     688,     639
     687,     652,     648,     677,     685,     675,     654,     641
     635,     630,     642,     676,     617,     652,     625,     579
     611,     566,     577,     539,     574,     575,     575,     541
     574,     541,     551,     546,     581,     519,     524,     531
     538,     505,     551,     511,     511,     525,     549,     511
     537,     496,     540,     501,     519,     485,     518,     483
     529,     517,     508,     566,     518,     507,     538,     490
     537,     545,     538,     538,     568,     540,     529,     551
     558,     557,     490,     506,     572,     465,     531,     508
     519,     503,     534,     509,     503,     507,     524,     505
     535,     524,     532,     508,     557,     536,     509,     512
     527,     498,     508,     511,     487,     527,     549,     511
     487,     519,     513,     526,     512,     517,     540,     535
     539,     537,     521,     499,     546,     491,     477,     518
     509,     539,     547,     521,     547,     493,     544,     536
     540,     553,     533,     541,     563,     546,     562,     543
     582,     545,     527,     518,     539,     546,     535,     577
     580,     559,     562,     551,     581,     576,     563,     591
     567,     588,     556,     613,     622,     575,     620,     632
     678,     722,     680,     718,     696,     750,     759,     723
     764,     824,     769,     820,     867,     882,     921,     904
     870,     921,     947,     926,     935,     937,     868,     904
     908,     832,     826,     801,     757,     757,     747,     721
     698,     721,     660,     652,     627,     690,     589,     626
     615,     563,     621,     572,     562,     565,     557,     584
     523,     547,     558,     570,     534,     565,     547,     566
     557,     562,     505,     562,     510,     549,     553,     529
     539,     529,     550,     518,     525,     544,     518,     525
     586,     528,     534,     494,     520,     518,     506,     528
     535,     489,     569,     496,     542,     506,     510,     504
     528,     538,     535,     532,     546,     533,     520,     549
     525,     567,     535,     502,     539,     557,     580,     556
     522,     567,     580,     552,     552,     541,     532,     556
     543,     511,     553,     508,     520,     534,     537,     573
     566,     533,     531,     571,     565,     517,     576,     543
     605,     585,     551,     539,     529,     557,     551,     585
     565,     573,     569,     604,     568,     588,     635,     582
     561,     614,     681,     587,     586,     624,     619,     649
     608,     654,     622,     653,     662,     621,     675,     596
     627,     675,     647,     676,     663,     671,     644,     660
     629,     639,     652,     679,     640,     652,     640,     679
     587,     609,     640,     594,     591,     604,     614,     576
     555,     564,     586,     582,     588,     565,     531,     610
     564,     524,     539,     546,     555,     575,     528,     571
     544,     544,     563,     606,     534,     566,     544,     528
     531,     541,     528,     558,     553,     527,     506,     536
     530,     552,     554,     513,     518,     550,     514,     509
     541,     523,     538,     543,     571,     574,     565,     519
     516,     539,     527,     518,     538,     497,     547,     534
     533,     512,     563,     542,     579,     488,     608,     563
     532,     551,     532,     544,     556,     566,     603,     563
     580,     580,     546,     535,     589,     580,     556,     550
     599,     566,     546,     548,     534,     573,     590,     613
     580,     591,     575,     553,     556,     586,     558,     596
     557,     549,     566,     544,     578,     508,     523,     521
     570,     543,     536,     498,     538,     548,     516,     575
     566,     545,     557,     485,     512,     516,     533,     569
     523,     552,     564,     503,     503,     537,     556,     518
     584,     526,     521,     517,     499,     515,     519,     529
     558,     554,     568,     534,     552,     552,     591,     542
     520,     593,     588,     532,     588,     559,     575,     575
     567,     606,     543,     612,     625,     553,     574,     613
     592,     638,     629,     610,     652,     642,     680,     629
     623,     642,     592,     640,     639,     617,     586,     616
     569,     674,     589,     560,     571,     533,     583,     579
     554,     520,     548,     532,     500,     545,     568,     540
     518,     539,     524,     484,     529,     507,     531,     565
     520,     553,     529,     519,     531,     539,     547,     497
     523,     526,     522,     507,     486,     518,     534,     534
     520,     516,     521,     504,     525,     525,     522,     502
     526,     530,     516,     513,     513,     515,     529,     470
     514,     525,     550,     492,     533,     513,     480,     465
     527,     536,     522,     508,     550,     523,     509,     517
     522,     527,     515,     493,     514,     500,     500,     499
     568,     469,     533,     505,     500,     516,     517,     546
     543,     497,     528,     501,     493,     489,     506,     514
     495,     504,     520,     477,     486,     512,     515,     540
     526,     514,     554,     517,     470,     494,     499,     545
     542,/
