SampleIdent,FeCu lotto 1253 1-014-01,/
Title1,Exported by X'Pert SW,/
Title2,Generated by User-1 in project luca.,/
DiffrType,XPERT,/
DiffrNumber,  1,/
Anode,Cu,/
LabdaAlpha1,  1.54056,/
LabdaAlpha2,  1.54439,/
RatioAlpha21,  0.50000,/
DivergenceSlit,Fixed,1/2,/
ReceivingSlit,Undefined,/
MonochromatorUsed, YES,/
GeneratorVoltage,  40,/
TubeCurrent,  30,/
FileDateTime, 14-oct-2001 15:29,/
DataAngleRange,  35.00000,  105.00000,/
ScanStepSize,  0.05000,/
ScanType,STEP,/
ScanStepTime,  5.00,/
RawScan
     283,     301,     283,     288,     272,     275,     285,     290
     298,     288,     327,     289,     302,     297,     308,     290
     280,     282,     310,     300,     325,     322,     287,     310
     290,     276,     332,     299,     314,     332,     288,     301
     295,     293,     328,     331,     308,     311,     313,     270
     312,     298,     289,     314,     290,     266,     311,     295
     272,     304,     289,     309,     339,     308,     330,     340
     332,     303,     314,     296,     311,     311,     303,     319
     327,     294,     341,     328,     358,     345,     315,     320
     328,     303,     307,     321,     304,     330,     297,     339
     324,     298,     292,     297,     355,     327,     321,     295
     325,     323,     312,     322,     318,     342,     297,     332
     361,     328,     381,     349,     327,     336,     335,     319
     331,     345,     367,     322,     321,     363,     345,     336
     321,     374,     338,     365,     364,     365,     329,     400
     369,     375,     410,     422,     432,     387,     464,     419
     447,     450,     445,     477,     444,     492,     527,     540
     549,     580,     599,     599,     673,     697,     782,     863
     945,    1071,    1126,    1345,    1577,    1877,    2137,    2222
    2644,    2882,    2993,    3200,    3124,    3062,    3028,    2734
    2521,    2177,    1966,    1729,    1571,    1385,    1186,    1052
     993,     881,     799,     771,     681,     677,     605,     638
     555,     551,     577,     515,     504,     509,     482,     491
     493,     466,     475,     462,     498,     478,     483,     504
     473,     459,     432,     431,     396,     394,     432,     396
     409,     444,     393,     389,     416,     398,     393,     365
     412,     413,     379,     376,     403,     393,     366,     411
     363,     395,     367,     386,     399,     373,     340,     384
     371,     341,     347,     355,     383,     373,     400,     365
     339,     397,     362,     373,     403,     367,     358,     395
     389,     369,     358,     354,     383,     387,     362,     369
     400,     365,     381,     366,     376,     376,     372,     395
     411,     407,     440,     439,     391,     414,     391,     421
     420,     434,     413,     492,     434,     471,     461,     485
     495,     457,     518,     512,     533,     501,     557,     550
     571,     614,     609,     641,     686,     626,     682,     747
     718,     717,     730,     727,     798,     780,     764,     768
     827,     753,     731,     739,     743,     738,     686,     630
     693,     654,     609,     642,     572,     566,     587,     492
     530,     488,     512,     502,     463,     443,     462,     430
     417,     423,     389,     415,     442,     395,     425,     411
     390,     430,     392,     399,     344,     388,     350,     397
     404,     367,     387,     352,     365,     375,     345,     372
     338,     359,     385,     344,     354,     334,     379,     363
     331,     355,     363,     319,     348,     365,     342,     368
     361,     394,     366,     357,     372,     351,     361,     347
     360,     362,     388,     381,     367,     349,     367,     342
     338,     348,     361,     337,     332,     354,     366,     337
     328,     340,     323,     370,     350,     353,     338,     321
     360,     338,     337,     367,     381,     331,     332,     371
     343,     356,     344,     356,     330,     347,     352,     312
     336,     321,     365,     347,     349,     345,     341,     335
     341,     354,     305,     356,     348,     354,     344,     324
     312,     331,     338,     353,     343,     384,     345,     337
     341,     378,     364,     337,     357,     371,     345,     371
     340,     320,     319,     348,     337,     341,     345,     356
     355,     335,     333,     334,     373,     347,     343,     330
     355,     357,     320,     308,     360,     369,     344,     341
     340,     375,     346,     365,     382,     341,     360,     341
     380,     334,     356,     344,     347,     342,     350,     345
     356,     333,     379,     356,     363,     368,     323,     362
     349,     347,     361,     349,     322,     375,     321,     350
     372,     337,     322,     345,     315,     367,     388,     337
     387,     336,     315,     323,     313,     363,     373,     377
     354,     343,     367,     370,     354,     356,     370,     358
     362,     348,     364,     339,     336,     367,     344,     358
     371,     350,     334,     347,     405,     351,     341,     360
     335,     357,     339,     356,     325,     358,     398,     351
     346,     355,     378,     346,     362,     335,     364,     355
     360,     378,     338,     356,     372,     395,     363,     371
     369,     381,     377,     373,     374,     363,     355,     350
     378,     349,     358,     375,     341,     367,     369,     336
     370,     404,     343,     369,     366,     346,     380,     340
     354,     386,     377,     348,     362,     361,     360,     384
     376,     387,     359,     361,     357,     379,     370,     373
     366,     372,     371,     407,     371,     349,     401,     363
     360,     382,     362,     340,     347,     426,     325,     357
     370,     379,     363,     367,     386,     373,     374,     349
     387,     359,     387,     335,     355,     373,     375,     358
     383,     352,     377,     359,     387,     366,     348,     380
     338,     366,     374,     366,     333,     382,     375,     371
     372,     340,     397,     363,     372,     362,     378,     362
     365,     359,     380,     361,     376,     373,     358,     396
     355,     354,     362,     404,     371,     381,     364,     388
     354,     384,     413,     378,     362,     336,     362,     358
     413,     382,     384,     403,     359,     371,     375,     391
     370,     378,     363,     375,     412,     348,     357,     325
     361,     380,     429,     392,     391,     382,     463,     386
     425,     388,     380,     406,     388,     392,     415,     410
     375,     395,     381,     363,     373,     360,     394,     402
     414,     383,     424,     395,     390,     392,     380,     409
     402,     436,     415,     403,     406,     419,     433,     461
     451,     427,     471,     436,     453,     451,     482,     483
     459,     498,     479,     484,     500,     539,     546,     512
     563,     578,     557,     571,     638,     598,     590,     662
     649,     620,     708,     637,     670,     658,     667,     656
     623,     632,     668,     646,     628,     651,     608,     578
     584,     598,     554,     535,     534,     550,     524,     457
     493,     495,     513,     485,     469,     482,     471,     435
     482,     496,     454,     424,     467,     433,     420,     378
     428,     418,     416,     458,     410,     407,     408,     425
     410,     395,     390,     418,     408,     425,     384,     392
     423,     393,     390,     404,     428,     433,     365,     404
     414,     382,     468,     408,     423,     408,     393,     432
     401,     406,     357,     394,     415,     411,     389,     416
     408,     434,     379,     393,     424,     406,     423,     365
     421,     378,     380,     397,     408,     420,     384,     379
     423,     427,     398,     394,     405,     407,     390,     381
     425,     407,     427,     390,     427,     421,     378,     376
     394,     424,     396,     395,     388,     375,     364,     400
     389,     396,     380,     403,     409,     379,     377,     428
     409,     386,     390,     426,     400,     401,     408,     445
     419,     383,     397,     436,     447,     400,     401,     387
     410,     388,     422,     393,     388,     425,     407,     432
     413,     398,     411,     370,     395,     406,     378,     405
     376,     440,     401,     401,     434,     368,     411,     424
     419,     421,     398,     430,     369,     387,     442,     404
     430,     354,     415,     449,     394,     433,     462,     426
     400,     383,     429,     439,     402,     404,     396,     439
     421,     399,     432,     420,     411,     427,     436,     416
     405,     386,     418,     428,     408,     413,     400,     434
     411,     405,     417,     422,     409,     414,     411,     427
     414,     386,     447,     436,     399,     452,     425,     398
     412,     420,     438,     402,     426,     457,     434,     414
     432,     430,     419,     450,     401,     425,     441,     438
     432,     424,     444,     447,     396,     437,     427,     451
     461,     414,     432,     438,     410,     465,     488,     469
     419,     437,     463,     446,     470,     451,     438,     451
     433,     459,     430,     419,     449,     448,     432,     473
     455,     507,     471,     474,     448,     461,     501,     540
     496,     460,     524,     496,     480,     516,     503,     530
     485,     540,     503,     508,     552,     556,     564,     567
     574,     573,     553,     623,     602,     636,     639,     579
     621,     587,     654,     640,     649,     595,     653,     605
     640,     655,     624,     594,     647,     639,     667,     606
     638,     605,     633,     585,     608,     618,     612,     650
     574,     562,     558,     592,     581,     555,     536,     566
     603,     542,     489,     527,     517,     484,     519,     536
     474,     505,     501,     500,     500,     460,     441,     480
     473,     483,     456,     457,     474,     516,     482,     421
     477,     458,     439,     436,     460,     453,     442,     457
     442,     458,     452,     439,     444,     471,     481,     445
     460,     463,     444,     488,     438,     454,     492,     481
     449,     454,     424,     477,     471,     449,     443,     475
     430,     443,     449,     478,     462,     502,     475,     485
     495,     526,     525,     466,     548,     508,     520,     498
     564,     535,     584,     563,     543,     558,     554,     546
     583,     591,     562,     539,     590,     567,     563,     531
     548,     567,     522,     525,     549,     492,     489,     541
     486,     560,     523,     490,     493,     473,     452,     481
     484,     464,     438,     492,     532,     451,     450,     434
     421,     447,     473,     466,     426,     451,     438,     463
     414,     445,     420,     456,     447,     414,     405,     472
     452,     405,     442,     454,     432,     399,     448,     414
     454,     446,     447,     426,     416,     441,     420,     420
     447,     464,     441,     442,     452,     411,     438,     415
     438,     475,     457,     462,     444,     456,     446,     419
     426,     410,     446,     450,     451,     438,     415,     398
     472,     425,     429,     445,     414,     427,     438,     422
     439,     425,     436,     415,     448,     470,     394,     409
     466,     439,     412,     419,     449,     387,     432,     428
     446,     424,     463,     428,     403,     443,     439,     431
     458,     412,     420,     421,     414,     426,     450,     414
     436,     402,     448,     445,     456,     428,     439,     431
     418,     411,     432,     380,     438,     459,     412,     437
     465,     442,     419,     460,     423,     426,     456,     447
     452,     440,     420,     443,     431,     428,     426,     450
     441,     440,     463,     422,     469,     452,     412,     405
     478,     421,     456,     438,     446,     412,     450,     427
     408,     426,     454,     420,     452,     443,     413,     409
     429,     455,     444,     472,     443,     426,     427,     434
     429,     439,     454,     440,     429,     445,     462,     449
     427,     432,     426,     455,     454,     434,     405,     467
     433,     453,     456,     403,     402,     487,     465,     423
     442,     445,     484,     465,     419,     405,     471,     421
     440,/
