SampleIdent,FeCu lotto 1222 1-034-01,/
Title1,Exported by X'Pert SW,/
Title2,Generated by User-1 in project luca.,/
DiffrType,XPERT,/
DiffrNumber,  1,/
Anode,Cu,/
LabdaAlpha1,  1.54056,/
LabdaAlpha2,  1.54439,/
RatioAlpha21,  0.50000,/
DivergenceSlit,Fixed,1/2,/
ReceivingSlit,Undefined,/
MonochromatorUsed, YES,/
GeneratorVoltage,  40,/
TubeCurrent,  30,/
FileDateTime, 11-oct-2001 8:36,/
DataAngleRange,  35.00000,  105.00000,/
ScanStepSize,  0.05000,/
ScanType,STEP,/
ScanStepTime,  5.00,/
RawScan
     390,     415,     417,     396,     396,     389,     405,     382
     395,     402,     394,     419,     422,     395,     381,     398
     403,     413,     352,     396,     407,     463,     375,     407
     419,     433,     387,     426,     376,     414,     415,     393
     412,     365,     394,     422,     396,     386,     408,     394
     389,     358,     401,     432,     357,     420,     403,     405
     382,     413,     385,     411,     399,     387,     400,     425
     406,     379,     409,     375,     421,     420,     407,     385
     389,     413,     344,     399,     392,     452,     414,     373
     411,     391,     403,     398,     400,     403,     392,     402
     413,     407,     408,     425,     399,     419,     380,     402
     388,     474,     422,     396,     427,     397,     426,     467
     433,     449,     427,     431,     391,     457,     425,     481
     424,     475,     441,     468,     423,     445,     434,     455
     487,     448,     495,     436,     473,     422,     434,     478
     421,     494,     490,     485,     546,     489,     458,     523
     535,     476,     454,     501,     518,     514,     522,     545
     535,     604,     559,     586,     608,     655,     640,     719
     736,     773,     837,     847,     951,    1036,    1108,    1174
    1299,    1442,    1624,    1700,    1889,    1982,    2077,    2168
    2253,    2123,    2151,    1961,    1904,    1773,    1619,    1573
    1416,    1329,    1284,    1211,    1195,    1193,    1081,    1100
    1095,    1139,    1144,    1143,    1212,    1259,    1298,    1297
    1380,    1452,    1526,    1515,    1553,    1562,    1611,    1656
    1586,    1570,    1501,    1466,    1346,    1334,    1170,    1088
    1043,     917,     839,     854,     831,     761,     755,     742
     694,     656,     662,     568,     612,     584,     562,     605
     570,     584,     506,     537,     543,     547,     522,     497
     557,     557,     508,     526,     493,     514,     506,     502
     498,     508,     494,     516,     514,     502,     493,     489
     492,     505,     484,     497,     496,     480,     481,     504
     539,     509,     477,     483,     520,     457,     485,     522
     482,     469,     513,     521,     460,     492,     454,     501
     487,     497,     524,     502,     540,     504,     530,     552
     512,     510,     523,     597,     528,     588,     554,     581
     541,     600,     590,     607,     639,     634,     615,     644
     695,     689,     701,     701,     708,     735,     709,     733
     750,     775,     743,     747,     762,     742,     798,     730
     726,     748,     734,     715,     690,     673,     665,     691
     614,     614,     642,     564,     577,     557,     555,     502
     527,     527,     524,     519,     521,     515,     516,     472
     483,     455,     452,     509,     443,     469,     492,     455
     482,     459,     491,     428,     446,     504,     474,     437
     431,     447,     488,     444,     450,     440,     431,     442
     436,     419,     455,     441,     462,     432,     431,     440
     435,     421,     446,     430,     459,     433,     413,     411
     425,     470,     426,     446,     481,     433,     441,     459
     422,     369,     425,     425,     441,     447,     419,     411
     370,     445,     434,     454,     395,     418,     441,     389
     454,     430,     398,     453,     438,     437,     410,     393
     402,     450,     428,     440,     408,     439,     416,     417
     407,     422,     445,     469,     423,     433,     408,     407
     384,     440,     422,     419,     415,     418,     414,     436
     434,     416,     394,     391,     436,     442,     437,     426
     394,     451,     459,     416,     414,     452,     428,     419
     375,     404,     465,     394,     402,     442,     412,     410
     429,     433,     413,     429,     432,     467,     447,     418
     402,     393,     414,     404,     417,     459,     453,     447
     449,     441,     401,     412,     436,     429,     450,     442
     434,     407,     411,     389,     422,     452,     423,     462
     409,     419,     418,     434,     494,     433,     410,     421
     433,     412,     437,     422,     414,     394,     430,     449
     422,     424,     403,     421,     444,     464,     473,     424
     451,     458,     452,     450,     443,     437,     410,     444
     443,     425,     434,     456,     466,     439,     429,     444
     425,     452,     467,     451,     426,     429,     430,     415
     433,     424,     406,     460,     461,     421,     434,     463
     458,     447,     456,     416,     453,     404,     484,     452
     469,     413,     415,     416,     434,     460,     447,     447
     425,     471,     462,     481,     445,     433,     428,     432
     455,     472,     435,     481,     479,     436,     467,     460
     433,     482,     489,     470,     435,     492,     445,     450
     460,     469,     466,     501,     475,     483,     470,     488
     485,     469,     500,     521,     512,     547,     511,     549
     462,     505,     537,     539,     508,     558,     532,     552
     499,     535,     504,     555,     529,     493,     540,     542
     525,     541,     496,     472,     495,     482,     505,     504
     453,     482,     483,     488,     482,     471,     432,     476
     490,     461,     439,     474,     423,     461,     465,     450
     449,     472,     474,     505,     448,     446,     497,     449
     422,     472,     456,     468,     464,     447,     509,     444
     464,     427,     438,     446,     394,     451,     462,     463
     447,     420,     491,     428,     470,     441,     475,     434
     443,     458,     471,     444,     422,     450,     442,     430
     445,     463,     409,     471,     443,     449,     475,     463
     452,     434,     454,     459,     455,     463,     455,     433
     439,     471,     457,     469,     475,     494,     431,     411
     445,     440,     452,     440,     449,     439,     476,     420
     491,     471,     481,     469,     483,     476,     469,     467
     454,     454,     437,     498,     479,     463,     417,     459
     476,     476,     446,     478,     458,     438,     468,     475
     478,     452,     459,     474,     480,     477,     481,     492
     494,     455,     508,     478,     515,     494,     489,     489
     486,     507,     555,     497,     486,     517,     487,     541
     572,     494,     507,     553,     558,     555,     585,     558
     538,     571,     596,     611,     597,     645,     645,     658
     625,     643,     648,     643,     669,     637,     652,     603
     606,     643,     632,     628,     616,     621,     610,     566
     584,     537,     552,     558,     544,     573,     547,     518
     553,     570,     549,     559,     539,     495,     519,     530
     531,     487,     515,     495,     500,     483,     525,     556
     510,     476,     532,     491,     506,     481,     491,     506
     477,     459,     468,     500,     461,     428,     450,     486
     496,     465,     480,     480,     506,     441,     458,     469
     489,     502,     473,     469,     461,     455,     498,     519
     452,     465,     515,     501,     452,     501,     494,     455
     480,     462,     470,     469,     445,     498,     447,     531
     451,     458,     464,     434,     434,     480,     459,     449
     499,     480,     500,     472,     435,     445,     455,     464
     460,     463,     464,     478,     467,     460,     470,     479
     477,     486,     486,     475,     461,     508,     454,     499
     468,     451,     483,     478,     480,     498,     474,     498
     464,     492,     506,     495,     506,     501,     523,     484
     481,     549,     493,     472,     467,     485,     480,     491
     534,     538,     503,     461,     546,     491,     518,     512
     527,     532,     543,     507,     545,     506,     534,     511
     556,     549,     595,     532,     536,     525,     602,     636
     577,     666,     665,     612,     649,     667,     638,     700
     634,     636,     668,     689,     638,     646,     632,     596
     623,     666,     610,     600,     582,     530,     585,     592
     509,     572,     581,     550,     539,     521,     534,     549
     511,     524,     520,     517,     558,     548,     530,     489
     530,     539,     520,     517,     509,     489,     483,     498
     471,     501,     532,     511,     479,     530,     509,     509
     493,     471,     504,     492,     487,     463,     506,     459
     519,     514,     487,     525,     488,     542,     501,     521
     519,     487,     480,     517,     498,     508,     516,     505
     492,     502,     478,     503,     514,     524,     525,     494
     521,     466,     533,     521,     505,     504,     517,     477
     479,     528,     520,     525,     539,     496,     483,     530
     500,     522,     578,     485,     548,     515,     506,     508
     552,     557,     573,     556,     504,     529,     559,     513
     543,     557,     556,     552,     539,     587,     590,     586
     549,     582,     565,     574,     580,     615,     647,     577
     597,     622,     609,     602,     645,     610,     631,     578
     634,     593,     638,     614,     664,     620,     647,     627
     581,     640,     607,     612,     628,     591,     610,     605
     576,     596,     607,     562,     538,     572,     555,     586
     597,     556,     592,     583,     599,     582,     554,     541
     568,     526,     575,     533,     525,     522,     471,     467
     507,     517,     520,     531,     521,     478,     513,     548
     503,     509,     520,     488,     503,     509,     447,     498
     495,     541,     520,     493,     492,     463,     512,     485
     495,     493,     503,     489,     504,     527,     523,     537
     507,     490,     501,     538,     488,     489,     463,     474
     522,     516,     508,     498,     519,     525,     574,     500
     533,     515,     503,     578,     532,     560,     555,     556
     574,     526,     520,     549,     575,     547,     545,     558
     554,     544,     543,     559,     526,     564,     529,     579
     538,     539,     539,     557,     567,     549,     545,     517
     541,     537,     493,     562,     533,     529,     496,     516
     513,     528,     525,     521,     515,     530,     500,     517
     514,     508,     493,     516,     490,     512,     488,     477
     507,     479,     534,     534,     495,     471,     486,     466
     507,     524,     562,     539,     523,     466,     497,     492
     500,     478,     505,     513,     496,     487,     531,     469
     519,     511,     500,     504,     474,     476,     549,     488
     541,     520,     507,     484,     538,     528,     509,     535
     507,     519,     506,     489,     552,     508,     516,     504
     539,     517,     510,     544,     545,     526,     543,     569
     527,     525,     540,     516,     558,     531,     560,     500
     511,     534,     489,     500,     530,     517,     520,     529
     479,     497,     490,     504,     503,     517,     490,     509
     509,     480,     455,     512,     532,     480,     512,     466
     499,     484,     460,     499,     482,     467,     496,     492
     521,     483,     541,     471,     460,     509,     495,     482
     497,     478,     484,     488,     461,     497,     484,     468
     495,     503,     481,     463,     473,     484,     485,     474
     482,     494,     470,     488,     490,     504,     505,     511
     480,     482,     482,     479,     522,     493,     531,     461
     506,     480,     466,     489,     482,     480,     481,     469
     484,     474,     491,     458,     489,     518,     515,     483
     462,     481,     462,     496,     498,     524,     493,     480
     525,     464,     500,     496,     525,     499,     493,     548
     499,     489,     473,     535,     482,     511,     515,     466
     456,/
