SampleIdent,FeCu lotto 1211 1-022-01,/
Title1,Exported by X'Pert SW,/
Title2,Generated by User-1 in project luca.,/
DiffrType,XPERT,/
DiffrNumber,  1,/
Anode,Cu,/
LabdaAlpha1,  1.54056,/
LabdaAlpha2,  1.54439,/
RatioAlpha21,  0.50000,/
DivergenceSlit,Fixed,1/2,/
ReceivingSlit,Undefined,/
MonochromatorUsed, YES,/
GeneratorVoltage,  40,/
TubeCurrent,  30,/
FileDateTime, 15-oct-2001 12:10,/
DataAngleRange,  35.00000,  105.00000,/
ScanStepSize,  0.05000,/
ScanType,STEP,/
ScanStepTime,  5.00,/
RawScan
     399,     393,     427,     445,     427,     401,     415,     423
     441,     442,     435,     419,     443,     457,     471,     422
     426,     429,     461,     419,     450,     435,     446,     425
     436,     455,     422,     449,     476,     422,     445,     432
     477,     490,     456,     426,     415,     437,     411,     428
     410,     410,     452,     427,     425,     411,     432,     445
     471,     436,     451,     414,     415,     413,     462,     440
     422,     435,     465,     412,     422,     431,     425,     432
     443,     428,     425,     386,     482,     432,     468,     436
     424,     412,     419,     430,     435,     460,     417,     448
     435,     450,     454,     439,     436,     444,     419,     462
     408,     480,     441,     417,     415,     396,     462,     435
     433,     452,     445,     429,     439,     420,     442,     475
     460,     463,     465,     485,     452,     428,     459,     464
     445,     445,     400,     465,     473,     479,     450,     448
     463,     470,     447,     466,     480,     458,     477,     467
     484,     507,     480,     465,     495,     494,     519,     500
     484,     478,     562,     555,     532,     533,     546,     583
     571,     591,     597,     593,     673,     664,     715,     705
     678,     778,     850,     823,     914,     958,    1102,    1200
    1332,    1580,    1710,    1794,    1978,    2242,    2198,    1965
    1946,    1680,    1523,    1360,    1304,    1105,    1091,    1026
     997,    1035,    1026,    1065,    1083,    1171,    1220,    1299
    1444,    1592,    1853,    2075,    2442,    2877,    3394,    4005
    4305,    4331,    4135,    3612,    2991,    2584,    2048,    1738
    1538,    1316,    1070,    1000,     937,     839,     791,     713
     709,     685,     672,     638,     591,     597,     553,     550
     485,     525,     554,     497,     485,     519,     523,     486
     486,     524,     501,     469,     485,     489,     488,     482
     481,     488,     486,     465,     529,     496,     521,     455
     496,     492,     468,     443,     480,     499,     460,     473
     503,     482,     486,     454,     489,     469,     515,     540
     486,     507,     477,     448,     486,     470,     487,     482
     478,     453,     479,     490,     494,     514,     503,     472
     454,     483,     501,     508,     505,     511,     490,     505
     515,     479,     534,     506,     492,     509,     529,     500
     555,     524,     544,     553,     567,     620,     575,     623
     616,     689,     647,     685,     710,     720,     773,     804
     804,     888,     843,     882,     931,     884,     899,     878
     801,     742,     704,     683,     660,     635,     636,     599
     581,     575,     548,     533,     518,     513,     521,     481
     500,     516,     485,     530,     479,     491,     499,     491
     457,     460,     462,     428,     513,     443,     417,     469
     410,     493,     479,     449,     479,     465,     484,     476
     439,     446,     440,     484,     387,     453,     447,     448
     465,     479,     423,     457,     425,     426,     484,     476
     511,     453,     463,     456,     490,     459,     453,     428
     434,     452,     434,     481,     463,     461,     424,     446
     448,     476,     457,     431,     448,     424,     443,     434
     440,     454,     408,     472,     420,     460,     454,     460
     426,     412,     440,     455,     486,     493,     462,     431
     439,     446,     426,     455,     469,     449,     423,     421
     493,     440,     462,     480,     436,     437,     448,     463
     461,     446,     447,     407,     461,     468,     468,     453
     452,     423,     423,     460,     486,     470,     454,     431
     422,     468,     447,     452,     451,     458,     454,     434
     469,     451,     470,     453,     443,     461,     501,     424
     441,     515,     439,     415,     410,     413,     459,     457
     436,     416,     424,     442,     465,     445,     439,     529
     438,     439,     484,     507,     465,     456,     457,     466
     480,     479,     455,     470,     437,     444,     458,     453
     450,     463,     441,     479,     466,     450,     425,     455
     454,     444,     486,     463,     454,     454,     469,     459
     466,     460,     455,     470,     476,     482,     439,     508
     416,     478,     446,     459,     481,     450,     505,     465
     430,     484,     512,     490,     494,     433,     529,     458
     447,     458,     490,     500,     471,     496,     457,     436
     504,     452,     491,     471,     461,     469,     497,     461
     460,     460,     525,     485,     488,     430,     495,     457
     463,     483,     466,     479,     470,     498,     438,     483
     486,     496,     465,     466,     504,     478,     498,     500
     497,     470,     499,     513,     498,     474,     499,     477
     499,     562,     495,     503,     515,     530,     513,     484
     560,     514,     561,     615,     562,     579,     634,     607
     675,     659,     710,     774,     799,     817,     831,     808
     829,     845,     824,     791,     768,     728,     697,     693
     637,     662,     615,     612,     611,     557,     560,     568
     522,     532,     473,     481,     477,     528,     512,     483
     507,     498,     469,     544,     484,     485,     472,     453
     496,     466,     493,     470,     468,     478,     505,     456
     470,     515,     476,     527,     481,     441,     474,     453
     454,     460,     465,     495,     485,     435,     498,     462
     431,     480,     487,     464,     469,     485,     445,     477
     454,     470,     471,     483,     457,     482,     477,     505
     450,     456,     433,     441,     496,     435,     457,     469
     494,     460,     488,     475,     505,     427,     469,     511
     442,     497,     450,     517,     431,     477,     459,     459
     481,     496,     511,     457,     475,     484,     437,     475
     449,     455,     486,     471,     496,     475,     454,     465
     472,     456,     477,     501,     490,     473,     471,     485
     413,     437,     460,     481,     507,     438,     482,     454
     475,     489,     468,     495,     472,     479,     455,     474
     500,     487,     458,     484,     485,     479,     513,     455
     541,     511,     474,     501,     501,     502,     508,     467
     504,     472,     499,     530,     519,     519,     512,     491
     536,     555,     511,     557,     555,     542,     554,     526
     560,     575,     609,     611,     621,     637,     574,     680
     728,     682,     712,     708,     711,     714,     703,     744
     696,     677,     699,     721,     660,     634,     611,     640
     601,     555,     533,     562,     518,     519,     568,     500
     509,     486,     484,     550,     520,     522,     507,     511
     498,     464,     477,     531,     464,     515,     461,     522
     498,     461,     510,     535,     476,     481,     480,     479
     483,     459,     460,     489,     492,     473,     487,     518
     454,     462,     529,     522,     491,     494,     521,     493
     459,     453,     444,     514,     434,     467,     507,     480
     474,     509,     516,     469,     470,     493,     528,     489
     493,     488,     490,     469,     489,     476,     475,     490
     494,     494,     488,     510,     476,     465,     477,     474
     499,     521,     468,     506,     491,     482,     484,     504
     471,     498,     506,     481,     501,     474,     475,     457
     520,     511,     515,     495,     492,     507,     516,     467
     467,     506,     511,     508,     454,     536,     492,     510
     494,     496,     507,     495,     511,     492,     519,     534
     506,     508,     536,     496,     555,     525,     494,     565
     486,     542,     548,     508,     542,     594,     588,     600
     549,     572,     621,     637,     652,     649,     700,     705
     736,     758,     789,     884,     935,     954,     978,    1054
    1147,    1128,    1115,    1144,    1106,    1095,    1032,    1086
    1020,     934,     862,     826,     778,     716,     705,     680
     737,     669,     589,     624,     598,     573,     591,     559
     594,     571,     548,     579,     545,     505,     552,     517
     538,     539,     484,     483,     490,     489,     519,     511
     491,     581,     499,     466,     528,     489,     528,     484
     480,     485,     493,     504,     499,     491,     505,     508
     485,     495,     531,     470,     456,     549,     469,     531
     489,     536,     457,     483,     494,     486,     497,     483
     499,     504,     516,     482,     509,     513,     487,     486
     517,     466,     469,     476,     509,     466,     514,     492
     494,     503,     532,     513,     511,     514,     508,     554
     474,     449,     516,     507,     486,     506,     502,     488
     520,     515,     533,     517,     530,     512,     518,     517
     490,     519,     516,     510,     545,     548,     482,     500
     532,     553,     510,     536,     517,     546,     511,     511
     511,     547,     547,     554,     510,     552,     569,     568
     580,     590,     531,     567,     552,     592,     607,     597
     619,     624,     644,     633,     654,     640,     700,     643
     680,     710,     651,     676,     660,     653,     674,     664
     660,     648,     651,     628,     617,     593,     578,     629
     610,     560,     561,     562,     598,     545,     538,     537
     543,     528,     511,     538,     515,     495,     529,     516
     512,     494,     438,     496,     509,     518,     521,     503
     541,     523,     561,     484,     491,     529,     515,     524
     524,     499,     532,     528,     485,     546,     502,     515
     510,     517,     527,     532,     508,     501,     545,     475
     502,     518,     508,     503,     510,     516,     508,     500
     483,     546,     507,     508,     535,     495,     495,     482
     513,     535,     507,     503,     520,     495,     503,     518
     496,     515,     533,     508,     508,     566,     528,     474
     515,     568,     534,     563,     595,     595,     571,     563
     571,     576,     580,     564,     564,     547,     565,     593
     543,     572,     547,     531,     569,     513,     554,     541
     547,     492,     555,     522,     523,     511,     542,     470
     498,     483,     504,     507,     507,     548,     481,     511
     536,     519,     521,     484,     518,     495,     507,     546
     493,     526,     516,     520,     566,     502,     511,     499
     518,     506,     506,     515,     543,     530,     498,     479
     533,     536,     505,     510,     507,     540,     538,     577
     540,     534,     603,     592,     563,     578,     580,     586
     631,     630,     654,     628,     637,     677,     732,     686
     672,     672,     647,     700,     676,     653,     644,     572
     604,     611,     560,     589,     575,     579,     540,     540
     549,     553,     572,     509,     547,     514,     531,     507
     481,     494,     491,     530,     508,     480,     473,     502
     527,     517,     477,     514,     506,     495,     512,     532
     494,     506,     482,     495,     517,     502,     500,     497
     477,     426,     531,     480,     482,     486,     517,     478
     478,     526,     457,     486,     491,     472,     487,     509
     504,     520,     538,     477,     460,     513,     493,     519
     474,     494,     522,     495,     504,     533,     519,     485
     469,     538,     521,     472,     458,     523,     529,     487
     495,     474,     501,     521,     555,     538,     487,     501
     471,     529,     493,     520,     493,     493,     498,     540
     501,     510,     505,     511,     496,     512,     457,     457
     546,     502,     525,     505,     487,     494,     483,     490
     522,/
