SampleIdent,FeCu lotto 1222 1-035-01,/
Title1,Exported by X'Pert SW,/
Title2,Generated by User-1 in project luca.,/
DiffrType,XPERT,/
DiffrNumber,  1,/
Anode,Cu,/
LabdaAlpha1,  1.54056,/
LabdaAlpha2,  1.54439,/
RatioAlpha21,  0.50000,/
DivergenceSlit,Fixed,1/2,/
ReceivingSlit,Undefined,/
MonochromatorUsed, YES,/
GeneratorVoltage,  40,/
TubeCurrent,  30,/
FileDateTime, 11-oct-2001 13:56,/
DataAngleRange,  35.00000,  105.00000,/
ScanStepSize,  0.05000,/
ScanType,STEP,/
ScanStepTime,  5.00,/
RawScan
     387,     363,     375,     432,     367,     409,     432,     455
     391,     388,     397,     397,     391,     390,     385,     416
     426,     390,     417,     400,     407,     402,     417,     397
     402,     408,     418,     391,     428,     401,     410,     441
     403,     396,     362,     374,     386,     392,     358,     385
     411,     411,     382,     414,     385,     426,     402,     406
     391,     401,     407,     425,     423,     382,     430,     445
     414,     414,     401,     387,     373,     398,     446,     403
     411,     383,     401,     419,     422,     422,     403,     414
     393,     433,     422,     419,     414,     414,     411,     441
     433,     441,     389,     428,     397,     418,     406,     397
     442,     407,     380,     436,     383,     398,     365,     433
     431,     459,     389,     424,     438,     426,     433,     453
     436,     444,     434,     486,     462,     440,     422,     455
     428,     444,     487,     445,     472,     459,     487,     475
     399,     473,     480,     504,     480,     439,     531,     489
     493,     487,     530,     550,     475,     572,     577,     581
     599,     554,     576,     644,     656,     627,     645,     721
     756,     772,     859,     859,     965,    1057,    1098,    1272
    1408,    1497,    1792,    1827,    1976,    2053,    2122,    2222
    2174,    2171,    2076,    1976,    1963,    1703,    1634,    1583
    1441,    1345,    1310,    1242,    1155,    1205,    1121,    1098
    1149,    1113,    1163,    1135,    1214,    1231,    1214,    1271
    1314,    1365,    1517,    1531,    1502,    1591,    1628,    1628
    1593,    1574,    1508,    1372,    1281,    1232,    1114,    1096
     979,     920,     914,     785,     810,     717,     733,     654
     718,     658,     663,     593,     606,     563,     586,     535
     575,     510,     558,     535,     529,     520,     510,     535
     511,     458,     517,     500,     459,     540,     541,     501
     515,     499,     523,     528,     491,     478,     541,     494
     462,     471,     486,     506,     503,     502,     504,     493
     473,     469,     451,     524,     456,     482,     520,     490
     521,     517,     507,     487,     542,     479,     539,     502
     536,     487,     514,     484,     506,     477,     531,     528
     548,     511,     533,     550,     562,     557,     570,     567
     634,     597,     617,     558,     617,     657,     677,     680
     655,     704,     708,     729,     724,     733,     745,     784
     732,     786,     780,     783,     765,     763,     845,     799
     715,     754,     730,     713,     727,     677,     655,     651
     640,     657,     623,     593,     558,     569,     523,     541
     556,     498,     532,     508,     553,     509,     517,     497
     522,     448,     498,     512,     506,     474,     453,     481
     445,     492,     490,     458,     440,     453,     493,     443
     461,     454,     483,     454,     436,     430,     426,     443
     450,     416,     436,     408,     444,     434,     451,     463
     440,     470,     453,     432,     415,     438,     438,     428
     405,     426,     447,     398,     423,     472,     390,     413
     402,     471,     489,     398,     417,     436,     427,     454
     440,     445,     432,     410,     421,     450,     413,     432
     445,     401,     442,     431,     438,     425,     419,     446
     442,     420,     398,     484,     442,     425,     430,     401
     437,     436,     431,     444,     440,     442,     461,     421
     441,     411,     452,     452,     443,     432,     446,     432
     464,     432,     410,     472,     433,     412,     415,     468
     447,     447,     421,     449,     408,     417,     424,     438
     440,     433,     436,     464,     418,     485,     460,     438
     474,     379,     428,     415,     404,     447,     453,     485
     420,     436,     417,     421,     414,     442,     400,     448
     449,     457,     393,     444,     426,     387,     423,     407
     474,     427,     438,     444,     426,     418,     417,     428
     436,     423,     453,     507,     431,     415,     423,     416
     423,     440,     452,     424,     457,     444,     492,     442
     478,     424,     400,     427,     452,     448,     444,     451
     402,     448,     389,     413,     406,     429,     442,     452
     389,     445,     448,     461,     435,     461,     450,     481
     475,     435,     439,     456,     418,     444,     456,     471
     440,     407,     455,     434,     466,     475,     467,     454
     423,     419,     462,     439,     458,     452,     449,     423
     453,     415,     436,     423,     426,     436,     461,     427
     405,     462,     449,     442,     467,     450,     452,     454
     426,     460,     443,     450,     426,     437,     464,     466
     436,     451,     473,     436,     437,     488,     456,     471
     456,     477,     445,     509,     477,     466,     488,     469
     512,     502,     523,     477,     506,     516,     508,     494
     507,     488,     513,     540,     477,     517,     530,     532
     538,     526,     517,     554,     548,     508,     496,     519
     483,     468,     504,     480,     478,     485,     503,     473
     500,     519,     479,     524,     489,     491,     503,     479
     477,     428,     414,     450,     473,     423,     460,     479
     460,     444,     440,     479,     485,     436,     460,     458
     424,     463,     442,     461,     430,     460,     409,     459
     436,     450,     459,     439,     409,     472,     461,     473
     409,     433,     454,     429,     441,     474,     431,     468
     460,     494,     461,     434,     447,     417,     409,     454
     479,     411,     448,     442,     452,     444,     484,     460
     487,     467,     432,     447,     427,     446,     434,     475
     449,     399,     468,     505,     492,     430,     469,     492
     430,     467,     469,     458,     485,     464,     448,     469
     473,     440,     480,     498,     456,     418,     474,     462
     484,     470,     456,     480,     437,     470,     498,     462
     460,     439,     477,     449,     442,     509,     493,     479
     460,     447,     510,     511,     485,     475,     489,     488
     466,     483,     483,     465,     487,     508,     483,     472
     478,     489,     507,     538,     534,     527,     495,     559
     505,     512,     562,     551,     549,     574,     585,     603
     547,     550,     618,     590,     589,     637,     612,     615
     657,     645,     669,     642,     671,     670,     664,     618
     652,     685,     695,     654,     630,     635,     581,     629
     594,     600,     577,     534,     599,     547,     531,     520
     542,     579,     507,     483,     508,     521,     530,     482
     524,     507,     500,     515,     521,     468,     489,     488
     484,     479,     514,     478,     467,     492,     538,     487
     456,     460,     488,     465,     475,     461,     462,     468
     473,     484,     502,     455,     467,     448,     467,     454
     482,     497,     480,     498,     483,     488,     488,     435
     461,     473,     471,     494,     481,     435,     492,     465
     496,     510,     482,     469,     508,     464,     516,     463
     507,     424,     460,     503,     503,     464,     477,     495
     480,     460,     487,     512,     485,     482,     516,     496
     523,     475,     490,     487,     482,     495,     466,     461
     465,     449,     477,     441,     441,     453,     495,     464
     468,     489,     487,     454,     466,     502,     514,     500
     496,     522,     507,     471,     505,     468,     501,     511
     490,     497,     495,     499,     511,     479,     535,     573
     520,     528,     550,     513,     549,     502,     530,     568
     524,     560,     546,     534,     578,     576,     513,     542
     566,     583,     609,     585,     577,     636,     612,     632
     591,     608,     667,     610,     617,     652,     695,     689
     702,     609,     638,     694,     662,     630,     653,     590
     646,     622,     583,     607,     586,     613,     565,     584
     567,     599,     559,     531,     541,     550,     509,     503
     537,     498,     499,     494,     516,     503,     511,     527
     509,     524,     508,     497,     495,     491,     492,     540
     497,     475,     522,     461,     524,     478,     478,     519
     494,     475,     470,     505,     493,     492,     490,     480
     483,     487,     500,     520,     496,     462,     515,     484
     427,     553,     501,     513,     494,     498,     502,     506
     502,     488,     475,     512,     495,     491,     496,     521
     498,     459,     511,     522,     488,     511,     511,     526
     514,     504,     529,     540,     486,     484,     488,     507
     487,     505,     546,     483,     500,     553,     519,     519
     541,     506,     549,     522,     554,     531,     531,     541
     563,     562,     540,     578,     566,     576,     556,     555
     556,     620,     639,     646,     590,     591,     622,     608
     671,     623,     651,     630,     621,     635,     618,     609
     615,     640,     639,     594,     601,     629,     586,     631
     578,     632,     618,     613,     629,     549,     607,     631
     589,     603,     610,     585,     559,     552,     611,     556
     576,     525,     564,     563,     568,     541,     547,     526
     571,     509,     499,     539,     545,     552,     541,     521
     530,     514,     505,     507,     500,     525,     527,     516
     495,     479,     481,     513,     538,     481,     520,     529
     508,     508,     493,     491,     512,     497,     498,     469
     500,     484,     488,     501,     524,     521,     512,     472
     522,     478,     519,     483,     488,     491,     543,     515
     479,     482,     535,     520,     492,     535,     523,     537
     486,     523,     565,     542,     541,     521,     525,     526
     548,     502,     518,     544,     569,     542,     522,     522
     572,     547,     543,     566,     556,     569,     582,     567
     526,     564,     549,     580,     585,     528,     563,     529
     538,     525,     537,     483,     561,     519,     513,     490
     523,     502,     512,     518,     529,     481,     504,     534
     498,     526,     481,     503,     518,     468,     524,     542
     479,     494,     485,     501,     497,     491,     524,     521
     489,     481,     496,     538,     497,     523,     535,     471
     489,     465,     480,     507,     475,     519,     472,     496
     514,     550,     506,     496,     532,     563,     509,     542
     507,     514,     512,     521,     509,     519,     518,     520
     510,     503,     556,     542,     494,     554,     496,     534
     561,     526,     489,     509,     542,     545,     518,     555
     518,     498,     496,     547,     541,     511,     516,     478
     530,     535,     508,     492,     457,     477,     516,     502
     513,     489,     471,     526,     512,     493,     496,     489
     512,     486,     492,     520,     481,     547,     494,     498
     505,     497,     446,     475,     498,     518,     454,     496
     519,     473,     483,     481,     481,     510,     470,     484
     471,     456,     489,     450,     490,     461,     501,     511
     470,     501,     477,     493,     498,     472,     524,     526
     490,     446,     502,     540,     493,     454,     470,     440
     477,     492,     420,     457,     506,     509,     429,     505
     454,     461,     445,     497,     477,     520,     468,     492
     492,     494,     491,     490,     498,     460,     479,     451
     472,     453,     488,     477,     463,     500,     482,     506
     463,     474,     501,     478,     515,     488,     495,     494
     468,     468,     511,     498,     459,     491,     471,     482
     494,/
