SampleIdent,FeCu lotto 1222 1-032-01,/
Title1,Exported by X'Pert SW,/
Title2,Generated by User-1 in project luca.,/
DiffrType,XPERT,/
DiffrNumber,  1,/
Anode,Cu,/
LabdaAlpha1,  1.54056,/
LabdaAlpha2,  1.54439,/
RatioAlpha21,  0.50000,/
DivergenceSlit,Fixed,1/2,/
ReceivingSlit,Undefined,/
MonochromatorUsed, YES,/
GeneratorVoltage,  40,/
TubeCurrent,  30,/
FileDateTime, 10-oct-2001 22:12,/
DataAngleRange,  35.00000,  105.00000,/
ScanStepSize,  0.05000,/
ScanType,STEP,/
ScanStepTime,  5.00,/
RawScan
     249,     261,     243,     230,     213,     237,     234,     261
     253,     238,     221,     271,     231,     251,     228,     248
     242,     231,     251,     232,     276,     259,     259,     237
     237,     221,     236,     222,     253,     259,     246,     231
     237,     231,     225,     269,     225,     241,     237,     236
     215,     237,     215,     242,     263,     257,     233,     251
     231,     223,     220,     243,     260,     258,     262,     238
     250,     248,     258,     230,     226,     236,     254,     245
     285,     266,     248,     238,     244,     270,     222,     228
     238,     241,     229,     251,     247,     251,     261,     233
     225,     266,     265,     216,     229,     214,     246,     239
     234,     223,     232,     266,     268,     267,     229,     256
     293,     251,     253,     283,     268,     278,     249,     259
     275,     285,     270,     269,     253,     275,     279,     246
     306,     274,     280,     268,     263,     277,     288,     304
     278,     258,     298,     291,     293,     304,     306,     295
     294,     295,     312,     331,     338,     297,     344,     290
     334,     341,     369,     370,     352,     384,     365,     392
     441,     481,     508,     477,     523,     591,     625,     730
     738,     859,     908,    1014,    1023,    1153,    1175,    1265
    1326,    1264,    1255,    1231,    1103,    1062,    1016,     916
     839,     785,     742,     712,     708,     635,     628,     668
     618,     679,     616,     669,     676,     687,     725,     723
     798,     818,     831,     844,     881,     937,     934,     914
     910,     906,     909,     796,     752,     713,     664,     671
     603,     551,     569,     490,     443,     437,     383,     402
     400,     421,     414,     385,     390,     339,     365,     367
     325,     338,     328,     315,     319,     301,     321,     322
     302,     298,     308,     299,     296,     308,     274,     312
     297,     288,     322,     305,     290,     290,     332,     285
     272,     276,     275,     343,     300,     304,     292,     298
     293,     284,     304,     294,     288,     325,     294,     315
     272,     288,     313,     326,     300,     262,     260,     285
     284,     310,     321,     308,     315,     300,     330,     300
     303,     319,     328,     338,     382,     311,     314,     307
     325,     353,     349,     376,     353,     369,     389,     402
     409,     364,     419,     434,     443,     455,     446,     441
     491,     459,     420,     479,     450,     481,     396,     432
     440,     442,     413,     415,     435,     396,     416,     354
     382,     382,     306,     365,     329,     331,     355,     293
     350,     304,     314,     324,     297,     321,     291,     279
     308,     313,     285,     274,     256,     262,     272,     277
     255,     264,     285,     285,     281,     244,     266,     274
     275,     248,     253,     276,     284,     281,     271,     257
     267,     268,     262,     256,     288,     274,     257,     268
     273,     264,     280,     254,     256,     244,     278,     232
     265,     257,     230,     259,     260,     260,     256,     255
     255,     247,     265,     262,     244,     263,     247,     243
     276,     247,     238,     297,     260,     262,     310,     247
     244,     254,     252,     255,     267,     245,     234,     256
     256,     256,     265,     270,     264,     251,     263,     262
     270,     264,     271,     272,     258,     247,     236,     258
     252,     240,     269,     262,     268,     273,     271,     257
     255,     255,     270,     281,     250,     265,     254,     248
     278,     240,     254,     292,     247,     249,     276,     229
     284,     249,     286,     235,     267,     281,     252,     277
     255,     269,     285,     269,     248,     271,     259,     291
     256,     287,     253,     266,     250,     269,     264,     231
     258,     247,     248,     277,     259,     255,     238,     261
     234,     243,     235,     273,     267,     286,     239,     269
     257,     262,     263,     265,     272,     284,     238,     251
     265,     241,     254,     235,     275,     281,     261,     266
     263,     286,     274,     276,     254,     258,     254,     267
     255,     245,     245,     252,     256,     262,     228,     282
     262,     276,     275,     247,     272,     291,     247,     248
     266,     280,     246,     263,     246,     268,     253,     305
     245,     247,     250,     275,     268,     272,     260,     238
     253,     268,     250,     250,     275,     312,     251,     254
     262,     254,     258,     288,     261,     263,     268,     257
     252,     298,     266,     252,     255,     232,     245,     277
     272,     254,     281,     281,     284,     271,     263,     264
     275,     283,     257,     250,     283,     239,     292,     289
     292,     276,     274,     300,     278,     310,     282,     304
     285,     277,     261,     291,     316,     323,     287,     299
     304,     321,     296,     307,     289,     324,     316,     293
     306,     283,     305,     291,     320,     298,     341,     301
     293,     327,     287,     318,     269,     267,     283,     299
     277,     282,     273,     279,     267,     263,     289,     293
     295,     298,     255,     306,     277,     288,     284,     273
     227,     282,     292,     270,     254,     273,     271,     268
     261,     273,     271,     266,     279,     274,     259,     245
     273,     265,     296,     315,     277,     273,     253,     260
     253,     274,     262,     281,     305,     290,     263,     240
     268,     261,     288,     261,     248,     265,     269,     259
     279,     275,     262,     247,     268,     276,     262,     267
     278,     282,     260,     282,     251,     324,     279,     271
     259,     282,     298,     303,     270,     277,     303,     288
     294,     291,     269,     290,     285,     285,     301,     287
     259,     260,     280,     298,     280,     277,     268,     268
     279,     263,     289,     276,     286,     293,     250,     284
     269,     298,     297,     282,     266,     305,     274,     309
     252,     262,     268,     283,     271,     289,     279,     275
     288,     277,     276,     289,     277,     307,     275,     310
     284,     300,     302,     291,     302,     290,     314,     279
     328,     370,     340,     308,     347,     324,     358,     349
     349,     370,     370,     358,     360,     381,     387,     422
     373,     415,     370,     365,     410,     386,     406,     356
     390,     348,     364,     401,     377,     344,     362,     348
     350,     343,     330,     338,     319,     340,     339,     342
     332,     311,     321,     328,     328,     300,     315,     314
     290,     268,     294,     299,     287,     310,     311,     300
     309,     285,     329,     285,     316,     319,     315,     264
     310,     328,     273,     288,     303,     279,     294,     284
     268,     277,     302,     282,     283,     288,     298,     283
     283,     299,     285,     251,     310,     310,     276,     269
     272,     276,     290,     270,     268,     266,     271,     289
     262,     270,     275,     274,     274,     294,     287,     319
     268,     269,     277,     293,     337,     271,     286,     279
     321,     278,     289,     271,     302,     289,     291,     278
     335,     291,     296,     281,     284,     264,     306,     281
     297,     270,     308,     262,     307,     291,     308,     286
     296,     279,     286,     300,     280,     287,     312,     307
     296,     339,     321,     292,     246,     298,     285,     303
     309,     273,     309,     275,     308,     302,     311,     322
     327,     316,     332,     272,     304,     306,     335,     302
     328,     339,     295,     308,     334,     283,     345,     313
     349,     354,     326,     336,     378,     327,     370,     376
     359,     384,     372,     385,     412,     403,     367,     407
     389,     384,     345,     391,     387,     387,     358,     363
     382,     357,     352,     316,     317,     354,     319,     337
     366,     316,     360,     335,     356,     333,     336,     310
     324,     304,     327,     312,     326,     304,     296,     325
     307,     291,     296,     274,     293,     292,     296,     292
     300,     296,     289,     266,     320,     334,     317,     316
     308,     314,     297,     294,     267,     288,     263,     286
     297,     320,     309,     309,     272,     313,     300,     267
     295,     322,     330,     320,     305,     292,     277,     360
     286,     300,     288,     312,     289,     299,     307,     276
     322,     289,     282,     309,     277,     294,     307,     300
     304,     294,     324,     308,     306,     291,     324,     276
     295,     289,     313,     313,     320,     318,     333,     316
     340,     321,     314,     288,     335,     340,     362,     325
     308,     344,     331,     359,     371,     355,     341,     359
     388,     350,     372,     318,     382,     385,     376,     391
     363,     359,     381,     369,     371,     378,     371,     371
     377,     401,     394,     391,     397,     345,     357,     356
     388,     342,     368,     404,     330,     393,     346,     375
     361,     364,     329,     370,     355,     340,     361,     364
     350,     371,     366,     369,     339,     368,     338,     312
     300,     312,     326,     321,     305,     328,     317,     295
     350,     310,     297,     292,     331,     300,     310,     285
     312,     305,     314,     314,     302,     310,     291,     304
     282,     280,     295,     314,     342,     302,     298,     289
     298,     307,     325,     313,     301,     265,     290,     291
     283,     311,     326,     297,     305,     311,     311,     321
     268,     302,     294,     297,     289,     283,     292,     342
     325,     301,     290,     318,     319,     328,     344,     299
     324,     350,     338,     336,     358,     331,     296,     332
     346,     354,     331,     325,     340,     351,     330,     377
     337,     343,     324,     334,     333,     309,     306,     333
     313,     353,     340,     350,     291,     323,     320,     314
     300,     333,     303,     311,     298,     282,     288,     314
     287,     284,     299,     311,     299,     293,     341,     324
     293,     298,     309,     326,     298,     302,     304,     318
     275,     323,     333,     306,     315,     319,     279,     320
     290,     292,     304,     312,     334,     332,     304,     326
     289,     271,     282,     331,     307,     288,     304,     312
     299,     336,     315,     285,     302,     306,     315,     333
     340,     316,     324,     339,     287,     319,     324,     313
     317,     322,     334,     326,     334,     293,     325,     333
     322,     318,     330,     303,     336,     305,     278,     325
     295,     334,     304,     297,     353,     309,     302,     320
     313,     319,     324,     300,     291,     345,     301,     259
     293,     282,     320,     291,     281,     273,     339,     297
     318,     292,     299,     294,     304,     332,     301,     289
     309,     289,     292,     303,     275,     296,     337,     286
     285,     294,     300,     299,     300,     264,     298,     303
     292,     284,     313,     293,     285,     299,     332,     324
     284,     301,     309,     279,     285,     307,     326,     309
     304,     281,     253,     318,     305,     319,     283,     279
     282,     310,     288,     321,     283,     301,     280,     289
     283,     289,     281,     294,     280,     316,     296,     302
     335,     318,     307,     289,     275,     296,     301,     301
     292,     336,     311,     310,     288,     312,     296,     313
     307,     309,     310,     311,     287,     297,     294,     276
     283,/
