SampleIdent,FeCu lotto 1222 1-025-01,/
Title1,Exported by X'Pert SW,/
Title2,Generated by User-1 in project luca.,/
DiffrType,XPERT,/
DiffrNumber,  1,/
Anode,Cu,/
LabdaAlpha1,  1.54056,/
LabdaAlpha2,  1.54439,/
RatioAlpha21,  0.50000,/
DivergenceSlit,Fixed,1/2,/
ReceivingSlit,Undefined,/
MonochromatorUsed, YES,/
GeneratorVoltage,  40,/
TubeCurrent,  30,/
FileDateTime, 15-oct-2001 18:02,/
DataAngleRange,  35.00000,  105.00000,/
ScanStepSize,  0.05000,/
ScanType,STEP,/
ScanStepTime,  5.00,/
RawScan
     379,     399,     401,     380,     360,     377,     398,     420
     376,     370,     405,     394,     361,     393,     384,     382
     399,     393,     400,     397,     389,     383,     419,     385
     408,     389,     416,     392,     397,     403,     408,     403
     401,     414,     405,     391,     381,     368,     390,     388
     363,     394,     374,     351,     391,     386,     374,     405
     347,     416,     402,     366,     400,     411,     415,     411
     397,     399,     362,     399,     386,     401,     377,     431
     404,     386,     387,     410,     408,     400,     412,     393
     429,     379,     420,     415,     418,     442,     398,     402
     419,     429,     456,     451,     444,     385,     438,     394
     378,     392,     434,     421,     432,     417,     425,     402
     411,     373,     461,     428,     425,     433,     442,     450
     442,     440,     432,     414,     426,     406,     418,     418
     419,     415,     424,     466,     436,     420,     457,     414
     432,     454,     462,     450,     432,     496,     467,     464
     490,     487,     491,     501,     513,     528,     545,     529
     534,     572,     595,     590,     578,     624,     617,     668
     742,     727,     794,     769,     913,     937,    1063,    1086
    1204,    1309,    1440,    1570,    1694,    1798,    1965,    1939
    2035,    1970,    1927,    1934,    1873,    1674,    1628,    1483
    1421,    1326,    1225,    1213,    1112,    1077,    1076,    1058
    1075,    1089,    1099,    1099,    1118,    1132,    1185,    1338
    1272,    1392,    1380,    1439,    1563,    1540,    1613,    1626
    1632,    1536,    1538,    1420,    1355,    1351,    1183,    1102
    1033,     916,     898,     876,     788,     735,     712,     672
     661,     612,     650,     606,     630,     572,     562,     581
     510,     542,     547,     499,     514,     550,     514,     525
     473,     492,     467,     489,     492,     502,     558,     497
     476,     443,     501,     490,     461,     470,     505,     457
     507,     500,     469,     455,     461,     502,     495,     485
     476,     488,     490,     449,     457,     469,     493,     470
     441,     492,     494,     484,     530,     519,     434,     477
     521,     472,     497,     463,     466,     523,     486,     524
     509,     511,     514,     498,     534,     538,     593,     525
     609,     566,     591,     585,     589,     615,     540,     629
     610,     645,     654,     716,     687,     690,     727,     693
     758,     689,     733,     739,     706,     787,     726,     757
     701,     719,     682,     674,     640,     629,     668,     622
     619,     636,     567,     598,     552,     542,     554,     561
     536,     559,     513,     488,     485,     508,     439,     464
     483,     454,     462,     432,     502,     460,     455,     424
     447,     457,     444,     459,     461,     442,     457,     478
     444,     419,     419,     440,     442,     442,     437,     410
     445,     470,     456,     397,     430,     446,     401,     417
     430,     402,     442,     452,     408,     431,     428,     433
     425,     422,     404,     418,     461,     432,     434,     439
     418,     437,     409,     418,     416,     414,     403,     417
     401,     452,     385,     420,     395,     405,     416,     383
     421,     403,     424,     430,     447,     405,     476,     419
     394,     395,     405,     432,     430,     350,     403,     417
     429,     429,     435,     394,     438,     399,     439,     435
     418,     425,     403,     400,     446,     420,     453,     436
     435,     405,     407,     422,     422,     423,     420,     405
     445,     408,     416,     435,     448,     415,     407,     390
     415,     428,     435,     417,     416,     418,     415,     396
     408,     443,     401,     421,     402,     391,     421,     384
     404,     406,     421,     386,     425,     403,     410,     433
     431,     442,     389,     415,     413,     448,     427,     460
     409,     420,     403,     420,     449,     432,     422,     429
     434,     433,     426,     430,     408,     471,     421,     419
     442,     437,     408,     449,     395,     434,     397,     425
     420,     401,     439,     421,     420,     385,     417,     491
     388,     406,     460,     426,     437,     455,     423,     441
     402,     427,     437,     406,     468,     442,     436,     426
     410,     426,     416,     411,     426,     424,     420,     414
     452,     428,     427,     443,     441,     411,     420,     458
     459,     427,     450,     448,     428,     486,     448,     433
     449,     424,     417,     433,     427,     423,     428,     474
     396,     445,     421,     430,     448,     460,     429,     432
     456,     467,     437,     439,     452,     483,     435,     449
     456,     471,     460,     453,     446,     486,     398,     450
     428,     459,     429,     459,     464,     471,     459,     482
     460,     500,     510,     439,     436,     458,     471,     482
     499,     547,     528,     519,     522,     504,     516,     513
     524,     553,     480,     485,     522,     471,     501,     494
     500,     472,     526,     501,     490,     522,     491,     493
     466,     499,     459,     449,     467,     469,     471,     446
     442,     459,     438,     422,     409,     447,     430,     448
     408,     443,     448,     460,     477,     453,     434,     460
     442,     431,     462,     455,     437,     419,     433,     440
     438,     448,     467,     457,     429,     454,     456,     397
     453,     435,     401,     468,     476,     459,     446,     460
     489,     475,     463,     441,     427,     463,     477,     452
     431,     475,     410,     431,     417,     433,     467,     418
     439,     409,     487,     479,     394,     444,     397,     458
     429,     434,     409,     450,     398,     433,     439,     425
     440,     416,     481,     482,     444,     451,     447,     408
     400,     448,     429,     415,     381,     458,     422,     431
     491,     471,     429,     433,     409,     435,     440,     476
     436,     461,     459,     480,     480,     495,     486,     451
     446,     475,     453,     453,     480,     455,     460,     491
     510,     467,     470,     457,     467,     461,     483,     452
     491,     476,     426,     499,     520,     483,     492,     534
     494,     527,     518,     490,     533,     583,     531,     558
     523,     545,     538,     550,     588,     597,     560,     627
     610,     650,     671,     632,     642,     590,     645,     625
     625,     622,     647,     653,     628,     584,     622,     584
     590,     571,     574,     561,     539,     566,     499,     515
     500,     476,     550,     499,     505,     517,     507,     490
     496,     481,     485,     481,     477,     456,     468,     478
     450,     495,     473,     453,     462,     472,     470,     473
     495,     475,     432,     492,     457,     487,     475,     485
     434,     489,     457,     459,     426,     472,     441,     473
     470,     503,     462,     464,     494,     476,     477,     437
     500,     494,     435,     499,     466,     459,     509,     468
     448,     458,     449,     480,     459,     452,     466,     418
     479,     454,     417,     443,     467,     457,     484,     473
     461,     459,     460,     478,     419,     460,     450,     470
     464,     467,     459,     505,     469,     399,     452,     458
     422,     488,     439,     439,     447,     473,     476,     502
     454,     455,     463,     459,     499,     481,     455,     527
     468,     455,     445,     485,     529,     499,     476,     516
     471,     514,     477,     491,     452,     526,     469,     467
     462,     550,     475,     478,     500,     516,     507,     482
     543,     535,     549,     502,     522,     496,     520,     554
     569,     551,     570,     539,     589,     598,     599,     591
     577,     619,     673,     564,     599,     670,     683,     608
     633,     662,     639,     631,     666,     662,     642,     652
     622,     619,     588,     576,     613,     608,     578,     551
     612,     556,     593,     534,     598,     531,     518,     515
     560,     505,     498,     500,     539,     492,     495,     500
     483,     489,     503,     522,     498,     517,     512,     544
     494,     503,     510,     488,     496,     486,     495,     508
     447,     504,     540,     485,     486,     464,     517,     480
     462,     498,     490,     480,     449,     525,     462,     434
     523,     468,     451,     470,     526,     494,     476,     475
     492,     506,     504,     450,     472,     485,     522,     468
     473,     487,     478,     506,     482,     455,     475,     473
     494,     483,     491,     543,     520,     495,     510,     516
     505,     480,     490,     530,     533,     532,     476,     511
     520,     525,     536,     505,     522,     471,     530,     517
     512,     521,     547,     520,     554,     550,     543,     519
     546,     547,     526,     546,     595,     604,     609,     570
     584,     610,     590,     657,     660,     553,     613,     571
     615,     648,     618,     567,     594,     656,     611,     569
     650,     617,     581,     592,     566,     597,     574,     618
     595,     556,     601,     601,     567,     555,     581,     531
     543,     541,     549,     556,     526,     526,     562,     533
     513,     506,     520,     472,     490,     510,     536,     515
     493,     481,     473,     521,     503,     473,     494,     462
     484,     483,     523,     481,     460,     487,     489,     479
     486,     449,     463,     485,     487,     495,     502,     526
     492,     489,     479,     487,     446,     519,     489,     489
     478,     505,     491,     487,     479,     432,     457,     451
     441,     464,     489,     507,     473,     501,     504,     503
     489,     465,     539,     476,     513,     478,     550,     500
     552,     518,     513,     521,     555,     529,     578,     539
     517,     522,     530,     515,     502,     521,     519,     520
     543,     536,     505,     546,     526,     513,     525,     492
     524,     502,     515,     515,     552,     514,     494,     471
     520,     486,     505,     515,     501,     475,     468,     506
     466,     445,     473,     478,     517,     499,     511,     502
     463,     508,     515,     521,     491,     489,     511,     458
     493,     449,     486,     455,     457,     487,     507,     470
     470,     488,     517,     507,     515,     458,     497,     491
     449,     465,     498,     533,     499,     511,     505,     523
     534,     531,     469,     487,     475,     499,     520,     568
     538,     521,     535,     517,     484,     488,     490,     515
     475,     504,     510,     526,     486,     537,     474,     567
     498,     519,     503,     561,     505,     519,     539,     504
     522,     503,     478,     512,     515,     516,     505,     445
     502,     470,     491,     478,     501,     489,     461,     484
     469,     516,     458,     484,     519,     486,     451,     507
     453,     418,     485,     485,     482,     477,     440,     459
     509,     473,     484,     491,     493,     460,     501,     449
     490,     504,     498,     451,     452,     501,     505,     491
     475,     497,     473,     445,     470,     475,     444,     464
     471,     432,     452,     464,     481,     478,     471,     454
     469,     514,     426,     441,     488,     443,     496,     474
     513,     465,     427,     482,     466,     462,     458,     449
     515,     492,     474,     460,     502,     483,     494,     476
     470,     490,     490,     432,     480,     437,     454,     469
     455,     511,     465,     456,     482,     464,     499,     446
     407,     429,     513,     471,     469,     465,     470,     449
     480,/
