SampleIdent,FeCu lotto 1261 1-015-01,/
Title1,Exported by X'Pert SW,/
Title2,Generated by User-1 in project luca.,/
DiffrType,XPERT,/
DiffrNumber,  1,/
Anode,Cu,/
LabdaAlpha1,  1.54056,/
LabdaAlpha2,  1.54439,/
RatioAlpha21,  0.50000,/
DivergenceSlit,Fixed,1/2,/
ReceivingSlit,Undefined,/
MonochromatorUsed, YES,/
GeneratorVoltage,  40,/
TubeCurrent,  30,/
FileDateTime, 13-oct-2001 10:40,/
DataAngleRange,  35.00000,  105.00000,/
ScanStepSize,  0.05000,/
ScanType,STEP,/
ScanStepTime,  5.00,/
RawScan
     613,     599,     582,     613,     614,     613,     594,     575
     621,     560,     618,     626,     617,     618,     633,     588
     578,     597,     591,     619,     618,     628,     666,     629
     623,     643,     625,     630,     612,     645,     641,     699
     635,     620,     544,     600,     653,     587,     636,     632
     620,     613,     596,     619,     626,     578,     588,     616
     610,     555,     619,     604,     613,     614,     559,     621
     589,     599,     626,     576,     603,     612,     570,     584
     619,     542,     565,     592,     598,     624,     555,     568
     573,     572,     576,     597,     619,     599,     563,     551
     564,     580,     545,     566,     581,     596,     597,     546
     601,     574,     562,     584,     585,     590,     564,     622
     579,     628,     626,     583,     629,     582,     597,     573
     552,     572,     611,     572,     594,     634,     593,     607
     598,     611,     586,     636,     642,     601,     567,     604
     598,     598,     622,     643,     633,     663,     608,     588
     680,     633,     650,     622,     631,     633,     669,     677
     669,     686,     688,     690,     684,     712,     708,     735
     726,     766,     758,     755,     788,     837,     874,     951
     989,    1004,    1067,    1213,    1168,    1255,    1345,    1487
    1651,    1845,    2118,    2448,    2758,    3058,    3171,    3029
    2922,    2479,    2060,    1822,    1515,    1350,    1152,    1188
    1084,    1016,     941,     956,     961,     939,    1013,     998
    1011,    1068,    1271,    1453,    1721,    2089,    2604,    3518
    4286,    4723,    4372,    3696,    3000,    2195,    1791,    1351
    1278,    1075,     939,     882,     807,     792,     743,     738
     706,     695,     695,     688,     656,     633,     683,     625
     618,     644,     628,     596,     607,     652,     635,     629
     593,     622,     647,     576,     568,     605,     573,     629
     644,     639,     653,     596,     653,     592,     633,     639
     624,     616,     568,     628,     595,     606,     608,     608
     612,     603,     629,     586,     622,     595,     586,     598
     612,     617,     558,     626,     599,     588,     606,     643
     645,     597,     597,     586,     565,     611,     634,     610
     609,     601,     581,     669,     583,     652,     651,     657
     653,     619,     560,     645,     612,     668,     698,     674
     659,     651,     728,     687,     706,     701,     738,     787
     744,     772,     755,     857,     892,     870,     955,    1047
    1033,    1145,    1172,    1211,    1294,    1251,    1169,    1122
    1014,    1032,    1027,     921,     835,     790,     827,     765
     716,     693,     664,     681,     683,     648,     655,     666
     640,     590,     660,     647,     633,     641,     628,     616
     624,     566,     642,     593,     572,     582,     613,     612
     593,     585,     610,     568,     556,     572,     576,     556
     559,     582,     601,     571,     556,     613,     572,     598
     567,     553,     548,     592,     583,     592,     545,     595
     596,     606,     614,     630,     561,     598,     570,     572
     553,     568,     574,     594,     556,     560,     590,     568
     548,     563,     567,     587,     566,     579,     609,     514
     567,     557,     598,     648,     571,     612,     530,     556
     580,     568,     539,     595,     572,     556,     583,     599
     560,     574,     606,     597,     564,     536,     532,     543
     571,     592,     569,     576,     609,     570,     569,     583
     564,     570,     596,     570,     567,     594,     583,     575
     593,     554,     571,     551,     621,     592,     580,     605
     603,     563,     599,     595,     574,     596,     588,     566
     562,     580,     571,     602,     568,     577,     620,     572
     574,     581,     613,     552,     558,     576,     583,     599
     569,     584,     605,     559,     565,     582,     552,     574
     635,     535,     648,     619,     597,     559,     572,     616
     574,     609,     610,     596,     612,     611,     574,     572
     598,     586,     570,     562,     596,     613,     635,     597
     617,     583,     609,     577,     629,     606,     598,     627
     616,     607,     619,     577,     578,     620,     585,     601
     604,     603,     585,     577,     603,     592,     620,     583
     585,     563,     565,     570,     571,     550,     593,     596
     600,     621,     632,     584,     636,     585,     593,     609
     607,     611,     592,     621,     566,     621,     595,     616
     593,     606,     631,     600,     590,     635,     588,     577
     611,     548,     599,     585,     608,     584,     617,     606
     588,     600,     638,     640,     587,     601,     612,     598
     655,     623,     680,     624,     604,     647,     649,     650
     646,     651,     626,     624,     629,     674,     713,     686
     738,     736,     793,     785,     844,     904,     945,    1023
    1091,    1208,    1323,    1497,    1741,    1913,    2114,    2334
    2370,    2454,    2235,    2094,    1886,    1677,    1535,    1358
    1187,    1093,    1015,     906,     919,     907,     752,     714
     755,     729,     695,     686,     725,     692,     691,     646
     639,     664,     676,     645,     598,     648,     650,     648
     644,     651,     609,     588,     655,     620,     564,     623
     592,     561,     643,     567,     615,     567,     606,     535
     595,     588,     597,     621,     629,     597,     619,     609
     587,     559,     599,     572,     600,     602,     552,     583
     601,     591,     555,     598,     588,     587,     559,     588
     581,     539,     555,     598,     585,     556,     532,     590
     603,     631,     526,     567,     628,     572,     568,     617
     589,     594,     568,     562,     621,     580,     589,     589
     574,     587,     575,     575,     608,     567,     630,     591
     582,     633,     581,     590,     579,     578,     568,     571
     549,     543,     623,     631,     610,     560,     583,     629
     629,     572,     619,     611,     582,     619,     624,     621
     598,     600,     564,     588,     582,     598,     601,     593
     621,     596,     636,     579,     575,     621,     632,     610
     608,     608,     630,     641,     598,     633,     645,     609
     645,     657,     655,     648,     704,     671,     694,     655
     678,     688,     733,     676,     700,     702,     747,     715
     726,     802,     719,     760,     818,     809,     848,     845
     856,     887,     968,     981,     997,    1040,    1065,    1039
    1089,    1023,    1043,     979,     952,     894,     866,     849
     806,     855,     715,     761,     760,     751,     699,     692
     716,     707,     675,     642,     629,     625,     646,     631
     635,     626,     624,     611,     558,     599,     638,     663
     567,     595,     654,     652,     604,     619,     581,     616
     656,     595,     597,     577,     604,     620,     680,     645
     554,     610,     622,     571,     612,     605,     600,     588
     613,     617,     617,     599,     623,     591,     575,     577
     605,     606,     577,     588,     599,     590,     568,     587
     633,     581,     563,     590,     558,     580,     651,     555
     612,     635,     643,     615,     592,     638,     577,     559
     604,     627,     616,     620,     621,     579,     574,     611
     607,     604,     606,     613,     592,     556,     623,     656
     615,     622,     586,     633,     594,     603,     607,     606
     568,     591,     605,     632,     635,     665,     641,     588
     621,     649,     584,     615,     622,     620,     636,     587
     587,     596,     612,     632,     625,     621,     663,     639
     646,     636,     609,     645,     590,     612,     638,     679
     660,     654,     649,     633,     697,     756,     740,     734
     726,     812,     927,     926,     998,    1108,    1153,    1396
    1427,    1696,    1601,    1637,    1572,    1561,    1483,    1326
    1226,    1161,    1035,     989,     843,     845,     829,     738
     756,     720,     692,     637,     650,     660,     701,     655
     653,     608,     636,     627,     577,     620,     606,     616
     666,     604,     647,     614,     593,     551,     610,     595
     599,     562,     579,     587,     606,     595,     601,     645
     546,     580,     590,     580,     592,     616,     592,     618
     572,     666,     615,     624,     597,     639,     606,     591
     606,     618,     635,     604,     579,     602,     594,     658
     625,     583,     628,     607,     590,     586,     599,     559
     619,     590,     604,     639,     597,     642,     609,     586
     600,     637,     660,     584,     626,     618,     556,     561
     557,     622,     604,     645,     625,     605,     620,     655
     610,     591,     639,     644,     629,     640,     613,     565
     622,     604,     645,     619,     594,     639,     617,     572
     648,     662,     659,     636,     638,     668,     596,     671
     674,     699,     650,     626,     662,     661,     627,     670
     689,     714,     731,     701,     724,     694,     680,     749
     779,     760,     788,     776,     859,     827,     863,     894
     881,     883,     856,     880,     871,     882,     855,     860
     843,     876,     789,     811,     744,     804,     749,     722
     778,     706,     691,     735,     658,     687,     685,     623
     610,     681,     637,     637,     645,     624,     617,     638
     586,     602,     647,     598,     631,     598,     614,     652
     654,     636,     622,     607,     646,     597,     589,     608
     594,     569,     619,     634,     620,     611,     617,     616
     567,     584,     627,     558,     630,     634,     590,     631
     603,     664,     636,     563,     573,     612,     598,     607
     606,     600,     641,     599,     623,     604,     621,     640
     653,     603,     621,     663,     623,     618,     643,     660
     595,     662,     614,     622,     624,     637,     628,     639
     677,     668,     718,     665,     672,     638,     696,     692
     687,     662,     719,     705,     678,     697,     671,     653
     699,     654,     693,     653,     608,     640,     670,     617
     642,     596,     648,     628,     606,     614,     585,     602
     611,     630,     633,     575,     556,     600,     604,     602
     599,     617,     580,     615,     623,     648,     570,     621
     606,     556,     620,     578,     608,     613,     625,     558
     631,     588,     579,     644,     578,     597,     599,     599
     552,     590,     613,     608,     606,     638,     628,     603
     601,     590,     622,     658,     640,     633,     624,     690
     646,     682,     744,     741,     748,     799,     794,     809
     733,     771,     751,     755,     754,     653,     718,     664
     670,     669,     649,     635,     623,     629,     604,     667
     579,     581,     619,     643,     602,     580,     589,     611
     582,     558,     591,     596,     577,     548,     615,     624
     588,     577,     587,     612,     539,     610,     598,     592
     548,     557,     614,     614,     558,     561,     564,     599
     596,     595,     623,     602,     585,     625,     561,     564
     602,     589,     604,     601,     624,     598,     637,     610
     598,     576,     594,     578,     597,     628,     615,     613
     589,     608,     632,     592,     567,     552,     605,     576
     639,     584,     580,     583,     581,     572,     608,     568
     576,     610,     600,     594,     593,     575,     618,     635
     592,     587,     550,     558,     571,     634,     595,     622
     577,     580,     586,     563,     573,     561,     607,     600
     540,     603,     572,     636,     624,     609,     567,     582
     590,/
