SampleIdent,CuFe lotto 1222 1-033-01,/
Title1,Exported by X'Pert SW,/
Title2,Generated by User-1 in project luca.,/
DiffrType,XPERT,/
DiffrNumber,  1,/
Anode,Cu,/
LabdaAlpha1,  1.54056,/
LabdaAlpha2,  1.54439,/
RatioAlpha21,  0.50000,/
DivergenceSlit,Fixed,1/2,/
ReceivingSlit,Undefined,/
MonochromatorUsed, YES,/
GeneratorVoltage,  40,/
TubeCurrent,  30,/
FileDateTime, 11-oct-2001 1:02,/
DataAngleRange,  35.00000,  105.00000,/
ScanStepSize,  0.05000,/
ScanType,STEP,/
ScanStepTime,  5.00,/
RawScan
     273,     245,     248,     271,     278,     253,     243,     257
     236,     258,     260,     270,     259,     254,     245,     244
     264,     245,     266,     237,     252,     277,     246,     259
     276,     272,     273,     227,     240,     269,     267,     258
     247,     276,     262,     239,     246,     270,     281,     240
     242,     254,     257,     284,     259,     252,     240,     223
     250,     258,     288,     256,     293,     245,     261,     248
     240,     250,     254,     269,     290,     271,     278,     238
     249,     255,     267,     260,     257,     293,     254,     266
     249,     285,     254,     257,     273,     262,     262,     273
     272,     258,     274,     248,     251,     270,     260,     251
     266,     281,     267,     253,     255,     273,     291,     260
     246,     293,     278,     278,     253,     298,     289,     299
     279,     272,     296,     269,     277,     320,     298,     253
     302,     277,     316,     297,     280,     297,     306,     289
     293,     286,     327,     289,     319,     302,     340,     324
     310,     353,     337,     323,     370,     360,     310,     346
     346,     357,     396,     394,     413,     425,     431,     454
     513,     498,     546,     535,     541,     643,     718,     848
     831,     922,     982,    1090,    1182,    1270,    1329,    1398
    1369,    1365,    1334,    1218,    1202,    1069,    1019,     966
     923,     832,     762,     778,     739,     734,     758,     681
     716,     738,     693,     719,     739,     794,     786,     829
     885,     888,     984,     920,    1029,     976,    1051,     997
    1043,    1043,    1003,     832,     827,     811,     716,     657
     647,     601,     560,     523,     507,     481,     454,     464
     411,     438,     392,     388,     378,     386,     365,     365
     378,     340,     336,     333,     341,     357,     346,     338
     332,     319,     325,     329,     301,     299,     309,     296
     296,     311,     318,     293,     317,     302,     320,     290
     303,     332,     284,     293,     299,     314,     299,     317
     330,     310,     358,     329,     297,     294,     305,     326
     301,     303,     311,     305,     310,     355,     294,     276
     318,     307,     330,     357,     285,     340,     333,     341
     286,     324,     369,     318,     385,     335,     387,     383
     385,     359,     359,     402,     371,     411,     409,     413
     413,     434,     434,     487,     421,     438,     456,     466
     494,     481,     458,     538,     462,     487,     483,     473
     524,     469,     497,     441,     431,     459,     412,     397
     422,     389,     397,     398,     411,     375,     369,     367
     345,     357,     309,     329,     338,     325,     288,     317
     304,     300,     319,     311,     311,     306,     295,     290
     275,     276,     280,     324,     308,     304,     329,     280
     277,     307,     303,     303,     267,     281,     253,     298
     300,     294,     277,     291,     272,     275,     272,     313
     262,     268,     280,     297,     292,     273,     273,     257
     273,     302,     291,     309,     268,     268,     280,     287
     272,     262,     261,     304,     300,     275,     303,     272
     280,     243,     299,     276,     256,     271,     259,     269
     263,     291,     307,     273,     282,     280,     264,     280
     282,     256,     283,     285,     277,     236,     284,     281
     307,     291,     262,     280,     250,     289,     285,     277
     263,     271,     255,     258,     277,     306,     273,     250
     276,     312,     293,     273,     287,     266,     257,     284
     287,     266,     283,     263,     294,     254,     279,     289
     293,     265,     250,     283,     283,     276,     273,     320
     258,     257,     260,     263,     293,     280,     284,     258
     265,     296,     262,     274,     265,     259,     247,     285
     264,     305,     246,     276,     291,     293,     302,     290
     307,     306,     264,     298,     289,     281,     263,     265
     258,     305,     273,     232,     264,     273,     276,     285
     281,     277,     284,     271,     242,     296,     305,     278
     286,     265,     322,     288,     279,     276,     263,     305
     284,     264,     285,     262,     275,     289,     303,     274
     267,     299,     269,     256,     312,     252,     270,     248
     281,     291,     301,     292,     269,     268,     296,     279
     262,     315,     302,     261,     313,     283,     295,     281
     247,     285,     277,     282,     276,     275,     313,     266
     285,     280,     293,     267,     265,     302,     293,     292
     263,     304,     300,     272,     303,     286,     301,     292
     281,     307,     345,     292,     284,     314,     316,     269
     279,     330,     318,     294,     309,     277,     285,     265
     330,     320,     290,     346,     333,     304,     299,     338
     320,     297,     322,     332,     304,     312,     314,     291
     321,     330,     318,     361,     345,     303,     332,     343
     323,     320,     359,     335,     356,     314,     324,     329
     345,     322,     313,     302,     317,     297,     286,     310
     308,     298,     280,     310,     294,     304,     328,     320
     257,     284,     306,     303,     284,     290,     318,     306
     269,     272,     286,     295,     277,     305,     334,     271
     329,     297,     274,     288,     295,     283,     292,     294
     281,     245,     282,     269,     309,     286,     284,     302
     314,     312,     336,     292,     286,     304,     269,     265
     294,     300,     299,     270,     271,     316,     276,     299
     265,     300,     301,     299,     271,     293,     283,     291
     264,     317,     320,     287,     293,     275,     297,     282
     283,     310,     281,     302,     300,     295,     281,     298
     276,     288,     287,     272,     275,     291,     284,     289
     291,     311,     291,     302,     274,     284,     297,     263
     268,     271,     288,     277,     301,     295,     303,     293
     327,     277,     327,     306,     292,     305,     279,     303
     281,     282,     304,     307,     297,     328,     326,     322
     302,     309,     303,     335,     317,     344,     306,     338
     371,     328,     321,     339,     303,     376,     309,     385
     319,     332,     331,     348,     377,     379,     384,     357
     369,     380,     379,     415,     404,     385,     411,     371
     410,     409,     387,     415,     415,     428,     418,     393
     422,     423,     391,     437,     389,     415,     392,     406
     351,     370,     374,     374,     391,     347,     359,     342
     328,     357,     340,     293,     352,     312,     323,     335
     306,     322,     301,     295,     305,     293,     325,     330
     310,     288,     293,     316,     319,     306,     303,     322
     326,     304,     299,     306,     323,     310,     299,     294
     318,     321,     309,     294,     312,     310,     299,     303
     291,     308,     304,     300,     308,     319,     305,     326
     289,     278,     332,     286,     297,     297,     308,     271
     294,     293,     297,     291,     331,     320,     292,     333
     297,     292,     311,     312,     290,     314,     283,     310
     310,     308,     295,     311,     324,     304,     299,     335
     306,     289,     291,     299,     349,     325,     267,     345
     300,     310,     322,     303,     344,     320,     318,     296
     312,     291,     332,     300,     299,     304,     306,     345
     328,     311,     350,     323,     322,     319,     323,     288
     301,     317,     346,     301,     320,     323,     347,     320
     347,     321,     319,     321,     321,     329,     330,     327
     353,     372,     334,     350,     372,     356,     378,     358
     347,     368,     364,     364,     379,     379,     376,     391
     417,     439,     391,     394,     437,     427,     417,     419
     400,     433,     464,     383,     471,     402,     430,     426
     426,     397,     426,     379,     398,     412,     409,     363
     360,     373,     385,     341,     345,     372,     321,     364
     354,     349,     353,     340,     354,     345,     355,     309
     327,     334,     340,     349,     301,     336,     328,     291
     352,     313,     314,     312,     332,     326,     360,     327
     319,     317,     348,     302,     318,     301,     312,     319
     326,     316,     333,     300,     328,     314,     328,     315
     343,     326,     298,     316,     321,     312,     307,     319
     303,     334,     342,     318,     305,     336,     314,     337
     309,     322,     320,     309,     311,     306,     305,     304
     291,     328,     287,     306,     352,     337,     324,     310
     315,     321,     335,     319,     353,     333,     340,     327
     329,     337,     364,     340,     335,     382,     335,     346
     365,     338,     364,     353,     348,     384,     402,     371
     352,     364,     389,     398,     388,     395,     395,     418
     407,     417,     388,     415,     388,     404,     400,     393
     411,     389,     407,     397,     395,     399,     400,     395
     407,     392,     396,     417,     412,     381,     386,     376
     383,     372,     390,     362,     370,     405,     386,     402
     344,     360,     373,     350,     380,     321,     330,     344
     350,     359,     343,     311,     342,     338,     357,     347
     345,     349,     352,     360,     330,     295,     350,     286
     335,     332,     322,     338,     321,     332,     340,     302
     319,     311,     315,     324,     316,     329,     310,     363
     306,     299,     332,     311,     305,     328,     304,     331
     289,     308,     305,     340,     322,     339,     348,     309
     322,     355,     344,     341,     348,     312,     343,     323
     340,     340,     339,     362,     334,     327,     350,     373
     349,     311,     339,     340,     378,     386,     364,     329
     333,     354,     366,     368,     357,     361,     374,     392
     332,     358,     351,     384,     379,     338,     368,     348
     326,     319,     364,     333,     350,     327,     340,     324
     319,     312,     348,     326,     338,     335,     320,     320
     311,     342,     336,     303,     318,     313,     336,     324
     304,     340,     318,     320,     322,     335,     363,     291
     353,     350,     311,     313,     316,     319,     288,     302
     322,     328,     340,     302,     348,     316,     338,     353
     313,     326,     332,     330,     331,     363,     325,     358
     294,     324,     328,     342,     330,     351,     310,     367
     347,     331,     341,     346,     357,     322,     345,     328
     343,     324,     342,     347,     346,     348,     350,     329
     345,     354,     351,     343,     361,     306,     371,     329
     343,     327,     334,     309,     345,     340,     319,     321
     332,     313,     304,     345,     313,     307,     319,     314
     329,     303,     311,     306,     312,     321,     312,     313
     342,     327,     332,     325,     317,     367,     300,     344
     332,     351,     329,     311,     342,     297,     343,     322
     309,     321,     312,     308,     297,     345,     319,     322
     312,     305,     297,     305,     319,     313,     304,     306
     330,     306,     317,     293,     324,     341,     332,     278
     320,     285,     310,     321,     296,     344,     336,     336
     316,     321,     348,     301,     292,     276,     299,     290
     327,     361,     324,     308,     312,     340,     333,     321
     314,     286,     310,     312,     306,     306,     312,     292
     355,     293,     323,     302,     299,     326,     333,     326
     304,     288,     317,     332,     350,     324,     324,     291
     318,/
