SampleIdent,FeCu lotto 1252 1-013-01,/
Title1,Exported by X'Pert SW,/
Title2,Generated by User-1 in project luca.,/
DiffrType,XPERT,/
DiffrNumber,  1,/
Anode,Cu,/
LabdaAlpha1,  1.54056,/
LabdaAlpha2,  1.54439,/
RatioAlpha21,  0.50000,/
DivergenceSlit,Fixed,1/2,/
ReceivingSlit,Undefined,/
MonochromatorUsed, YES,/
GeneratorVoltage,  40,/
TubeCurrent,  30,/
FileDateTime, 14-oct-2001 12:40,/
DataAngleRange,  35.00000,  105.00000,/
ScanStepSize,  0.05000,/
ScanType,STEP,/
ScanStepTime,  5.00,/
RawScan
     423,     408,     376,     355,     361,     375,     385,     363
     369,     366,     373,     395,     410,     368,     382,     386
     355,     355,     421,     389,     389,     409,     394,     363
     372,     400,     403,     364,     373,     387,     429,     376
     366,     399,     397,     397,     423,     376,     388,     396
     406,     363,     361,     377,     375,     344,     408,     383
     376,     388,     380,     397,     390,     407,     358,     429
     394,     391,     407,     403,     384,     374,     359,     363
     407,     385,     385,     393,     383,     394,     376,     389
     391,     408,     396,     425,     356,     375,     390,     365
     396,     405,     428,     387,     413,     426,     394,     364
     404,     390,     418,     386,     419,     362,     426,     414
     409,     418,     404,     397,     403,     420,     447,     353
     388,     435,     435,     417,     432,     422,     402,     447
     422,     436,     422,     415,     453,     442,     444,     408
     465,     460,     432,     455,     485,     437,     509,     459
     509,     514,     471,     517,     504,     534,     521,     531
     520,     529,     581,     604,     619,     644,     678,     725
     757,     739,     869,     920,     991,    1056,    1188,    1330
    1356,    1701,    1764,    1894,    2134,    2270,    2328,    2316
    2270,    2227,    2110,    2036,    1938,    1751,    1521,    1486
    1350,    1273,    1195,    1099,    1073,    1011,     945,     986
     926,     924,     911,     948,     964,     949,     936,    1032
     990,    1001,    1064,    1097,    1091,    1116,    1109,    1126
    1037,    1060,    1036,    1071,    1024,     929,     872,     870
     803,     803,     746,     676,     695,     627,     556,     610
     579,     566,     570,     543,     562,     510,     542,     496
     512,     487,     545,     513,     518,     502,     479,     506
     441,     492,     472,     479,     462,     456,     481,     467
     463,     485,     494,     513,     464,     456,     482,     487
     470,     453,     444,     462,     485,     476,     463,     484
     442,     455,     443,     473,     459,     447,     454,     468
     472,     481,     479,     504,     444,     461,     488,     482
     507,     533,     456,     527,     509,     510,     539,     520
     519,     471,     546,     543,     557,     549,     536,     584
     633,     564,     577,     625,     616,     630,     659,     660
     687,     655,     700,     714,     759,     769,     750,     796
     760,     782,     812,     802,     760,     747,     773,     790
     764,     729,     737,     743,     703,     697,     667,     638
     670,     644,     615,     573,     579,     586,     540,     485
     526,     495,     517,     508,     456,     479,     489,     483
     494,     466,     487,     455,     464,     432,     431,     481
     429,     446,     434,     457,     462,     444,     410,     412
     491,     412,     444,     438,     430,     417,     420,     444
     411,     416,     448,     394,     386,     430,     399,     412
     394,     352,     381,     403,     415,     424,     427,     419
     411,     399,     417,     403,     400,     420,     399,     386
     457,     415,     438,     382,     384,     410,     382,     406
     435,     425,     413,     391,     420,     414,     403,     386
     417,     405,     385,     361,     426,     390,     406,     414
     358,     465,     375,     428,     410,     396,     402,     432
     449,     378,     442,     422,     388,     426,     386,     383
     364,     430,     397,     366,     403,     405,     392,     402
     415,     380,     407,     426,     415,     379,     392,     398
     395,     389,     428,     429,     401,     417,     366,     415
     414,     404,     406,     388,     383,     409,     423,     373
     406,     375,     426,     409,     419,     419,     374,     395
     407,     427,     426,     431,     418,     412,     381,     430
     400,     398,     428,     356,     421,     392,     422,     415
     432,     428,     424,     414,     427,     375,     411,     402
     396,     395,     402,     375,     443,     407,     424,     439
     433,     419,     433,     391,     424,     400,     416,     383
     429,     428,     398,     391,     413,     412,     388,     431
     394,     412,     453,     416,     411,     430,     418,     405
     442,     399,     411,     403,     380,     414,     421,     423
     453,     412,     453,     436,     389,     461,     362,     456
     414,     460,     406,     424,     424,     372,     411,     413
     378,     442,     425,     417,     395,     443,     410,     403
     439,     419,     429,     401,     409,     448,     403,     425
     428,     422,     399,     390,     432,     428,     432,     421
     432,     423,     412,     423,     417,     403,     445,     441
     410,     442,     466,     409,     447,     442,     412,     427
     424,     422,     486,     441,     441,     428,     411,     424
     453,     451,     475,     457,     455,     483,     442,     469
     438,     436,     457,     461,     508,     483,     429,     423
     466,     442,     448,     489,     454,     424,     456,     444
     450,     442,     420,     469,     466,     433,     445,     458
     432,     444,     420,     445,     457,     448,     411,     427
     417,     450,     441,     426,     420,     428,     439,     447
     435,     437,     406,     410,     402,     435,     494,     442
     442,     435,     420,     449,     452,     456,     446,     449
     410,     387,     410,     419,     421,     425,     401,     424
     384,     421,     425,     401,     413,     425,     423,     429
     388,     467,     471,     423,     424,     445,     416,     449
     411,     415,     413,     382,     445,     381,     428,     394
     410,     423,     418,     441,     405,     437,     432,     449
     430,     433,     461,     431,     391,     397,     472,     430
     449,     445,     430,     434,     394,     450,     425,     418
     416,     463,     433,     470,     453,     434,     411,     460
     416,     435,     462,     431,     454,     412,     474,     439
     439,     427,     457,     504,     432,     401,     468,     423
     475,     475,     476,     420,     480,     484,     461,     455
     472,     419,     470,     456,     476,     480,     478,     488
     487,     479,     483,     505,     477,     494,     480,     505
     504,     498,     507,     506,     553,     628,     552,     544
     615,     578,     593,     606,     612,     634,     628,     638
     659,     676,     672,     678,     636,     618,     671,     669
     639,     659,     626,     552,     614,     578,     572,     570
     511,     531,     565,     498,     509,     550,     485,     523
     552,     510,     476,     504,     504,     509,     470,     476
     488,     502,     447,     442,     497,     474,     484,     514
     492,     443,     411,     448,     468,     452,     500,     453
     466,     468,     467,     479,     428,     444,     446,     458
     439,     472,     451,     465,     467,     463,     478,     421
     431,     477,     431,     429,     450,     468,     426,     443
     461,     408,     465,     435,     463,     439,     428,     447
     434,     462,     440,     435,     449,     454,     433,     433
     449,     389,     459,     453,     478,     455,     474,     454
     420,     504,     443,     463,     484,     458,     404,     447
     410,     439,     466,     411,     462,     468,     433,     452
     452,     430,     458,     458,     408,     421,     480,     435
     470,     442,     455,     469,     440,     416,     431,     456
     465,     494,     484,     459,     473,     444,     419,     483
     438,     457,     453,     455,     442,     492,     457,     432
     456,     442,     473,     464,     444,     451,     459,     469
     490,     499,     483,     495,     471,     512,     480,     514
     532,     497,     506,     493,     484,     511,     479,     542
     549,     541,     547,     524,     514,     519,     533,     545
     548,     558,     552,     530,     585,     514,     591,     531
     562,     543,     533,     533,     494,     548,     481,     506
     500,     471,     527,     474,     500,     447,     475,     480
     472,     512,     461,     460,     496,     461,     465,     480
     472,     460,     488,     497,     419,     459,     510,     507
     480,     489,     473,     471,     463,     496,     434,     439
     457,     468,     406,     457,     461,     483,     454,     481
     424,     422,     463,     471,     457,     461,     454,     490
     466,     488,     456,     479,     505,     494,     486,     470
     494,     470,     493,     460,     455,     485,     484,     459
     493,     471,     424,     492,     445,     468,     524,     507
     506,     489,     504,     506,     467,     526,     519,     536
     501,     487,     476,     516,     522,     490,     504,     486
     473,     504,     567,     574,     519,     518,     534,     545
     530,     549,     566,     539,     511,     507,     523,     583
     563,     585,     623,     589,     594,     629,     572,     637
     585,     645,     585,     616,     607,     585,     577,     623
     608,     616,     607,     609,     645,     636,     589,     625
     598,     653,     627,     608,     596,     572,     575,     600
     554,     540,     535,     558,     527,     573,     542,     557
     524,     489,     543,     574,     592,     544,     528,     469
     488,     510,     507,     523,     513,     474,     487,     433
     518,     509,     463,     488,     504,     496,     497,     503
     508,     465,     467,     440,     472,     465,     479,     474
     492,     434,     481,     494,     432,     449,     478,     483
     468,     468,     455,     505,     434,     505,     448,     458
     469,     478,     452,     476,     482,     452,     473,     458
     475,     480,     492,     510,     490,     491,     488,     464
     459,     474,     483,     508,     514,     522,     494,     475
     529,     537,     550,     569,     534,     546,     548,     525
     527,     592,     505,     515,     539,     501,     534,     505
     552,     520,     507,     490,     524,     518,     539,     500
     523,     484,     487,     464,     515,     497,     513,     499
     505,     478,     510,     485,     490,     502,     463,     447
     466,     468,     482,     489,     442,     483,     473,     432
     468,     442,     460,     470,     466,     463,     480,     471
     522,     499,     498,     473,     469,     424,     486,     471
     481,     488,     488,     465,     423,     481,     445,     472
     484,     461,     537,     451,     450,     502,     421,     454
     489,     476,     474,     461,     474,     436,     487,     472
     505,     518,     499,     482,     518,     514,     492,     493
     488,     481,     479,     485,     472,     454,     459,     531
     470,     501,     499,     477,     486,     440,     460,     496
     451,     491,     472,     502,     518,     459,     504,     513
     471,     477,     448,     504,     487,     496,     480,     497
     487,     459,     488,     490,     453,     457,     456,     479
     456,     497,     483,     397,     459,     466,     454,     481
     501,     525,     430,     435,     480,     442,     457,     472
     438,     452,     454,     419,     443,     454,     440,     440
     477,     435,     446,     435,     486,     458,     433,     434
     406,     445,     488,     487,     479,     445,     410,     461
     438,     480,     448,     445,     432,     446,     426,     450
     444,     445,     435,     489,     428,     491,     455,     429
     460,     461,     426,     475,     498,     493,     465,     440
     434,     478,     442,     478,     451,     440,     448,     477
     487,     504,     471,     469,     476,     444,     462,     456
     490,     448,     491,     492,     435,     443,     487,     487
     482,/
