SampleIdent,FeCu lotto 1245 1-010-01,/
Title1,Exported by X'Pert SW,/
Title2,Generated by User-1 in project luca.,/
DiffrType,XPERT,/
DiffrNumber,  1,/
Anode,Cu,/
LabdaAlpha1,  1.54056,/
LabdaAlpha2,  1.54439,/
RatioAlpha21,  0.50000,/
DivergenceSlit,Fixed,1/2,/
ReceivingSlit,Undefined,/
MonochromatorUsed, YES,/
GeneratorVoltage,  40,/
TubeCurrent,  30,/
FileDateTime, 13-oct-2001 22:53,/
DataAngleRange,  35.00000,  105.00000,/
ScanStepSize,  0.05000,/
ScanType,STEP,/
ScanStepTime,  5.00,/
RawScan
     386,     385,     389,     373,     426,     401,     386,     398
     381,     346,     404,     402,     400,     416,     381,     389
     434,     392,     376,     400,     400,     390,     426,     392
     446,     421,     394,     412,     357,     390,     376,     397
     361,     400,     415,     414,     369,     448,     407,     416
     389,     392,     397,     390,     400,     445,     383,     380
     380,     413,     409,     426,     376,     417,     461,     402
     408,     389,     392,     434,     435,     379,     401,     424
     435,     419,     415,     435,     396,     408,     430,     391
     443,     369,     405,     459,     415,     427,     387,     394
     411,     433,     375,     430,     415,     406,     464,     441
     444,     394,     385,     433,     410,     426,     445,     395
     416,     456,     411,     400,     436,     428,     463,     410
     455,     463,     432,     470,     427,     445,     474,     438
     474,     474,     463,     491,     496,     460,     485,     470
     477,     486,     526,     564,     509,     540,     524,     524
     541,     542,     577,     588,     572,     615,     598,     637
     669,     705,     734,     763,     778,     838,     905,    1030
    1078,    1189,    1298,    1359,    1551,    1707,    1889,    1994
    2286,    2456,    2623,    2794,    2837,    2835,    2841,    2710
    2597,    2397,    2125,    2030,    1815,    1638,    1522,    1397
    1302,    1146,    1080,     999,     918,     925,     892,     826
     788,     792,     773,     751,     726,     672,     728,     693
     693,     654,     590,     608,     624,     635,     581,     637
     611,     618,     584,     602,     607,     585,     533,     588
     561,     570,     515,     547,     572,     535,     506,     517
     513,     519,     508,     551,     516,     504,     507,     481
     507,     521,     508,     500,     505,     480,     527,     496
     462,     487,     506,     482,     492,     512,     527,     505
     488,     468,     491,     459,     520,     495,     499,     493
     461,     500,     511,     508,     562,     564,     497,     513
     521,     528,     522,     508,     536,     534,     501,     474
     530,     524,     527,     507,     508,     562,     595,     584
     577,     525,     604,     561,     530,     603,     601,     582
     633,     610,     626,     678,     671,     681,     690,     654
     699,     738,     715,     756,     799,     754,     783,     822
     822,     814,     816,     858,     891,     888,     902,     916
     936,     894,     799,     840,     825,     822,     866,     829
     818,     758,     703,     721,     698,     680,     722,     632
     662,     626,     651,     584,     605,     557,     579,     600
     521,     558,     534,     560,     508,     515,     531,     524
     491,     540,     463,     460,     496,     498,     509,     448
     525,     459,     473,     451,     506,     456,     470,     468
     453,     471,     499,     454,     475,     497,     435,     436
     433,     422,     417,     434,     473,     441,     424,     405
     410,     447,     435,     439,     449,     435,     453,     438
     424,     409,     419,     421,     447,     455,     420,     433
     426,     436,     439,     459,     465,     434,     432,     445
     417,     420,     427,     427,     408,     408,     415,     400
     384,     426,     421,     449,     434,     423,     434,     412
     418,     428,     446,     414,     455,     433,     472,     453
     419,     444,     413,     396,     400,     398,     392,     425
     459,     420,     402,     437,     417,     414,     403,     433
     394,     407,     390,     420,     433,     396,     411,     434
     387,     428,     387,     403,     420,     399,     436,     427
     406,     424,     439,     429,     389,     440,     435,     414
     399,     425,     427,     445,     427,     426,     471,     393
     426,     377,     407,     423,     425,     447,     437,     430
     408,     396,     420,     428,     420,     403,     462,     396
     413,     412,     395,     396,     450,     429,     418,     438
     409,     404,     383,     454,     437,     424,     407,     435
     428,     407,     387,     407,     417,     435,     434,     436
     414,     415,     406,     391,     413,     447,     463,     406
     419,     430,     402,     392,     412,     420,     426,     412
     408,     459,     440,     429,     492,     439,     436,     449
     424,     430,     465,     410,     449,     432,     421,     402
     459,     447,     388,     397,     436,     432,     439,     419
     396,     438,     435,     400,     441,     411,     373,     448
     410,     448,     470,     464,     435,     423,     436,     453
     424,     423,     396,     395,     418,     477,     415,     450
     437,     422,     447,     450,     417,     395,     426,     444
     433,     391,     439,     449,     431,     389,     419,     437
     404,     408,     456,     438,     442,     404,     439,     417
     406,     449,     448,     449,     414,     445,     395,     445
     475,     448,     430,     493,     420,     458,     454,     445
     441,     450,     395,     422,     404,     423,     425,     430
     427,     473,     417,     404,     406,     430,     404,     449
     432,     434,     439,     448,     424,     416,     423,     422
     433,     456,     434,     431,     408,     454,     416,     420
     420,     415,     417,     417,     474,     459,     471,     431
     414,     469,     487,     412,     466,     465,     408,     437
     450,     406,     389,     445,     451,     454,     487,     425
     425,     435,     430,     449,     415,     433,     457,     419
     439,     422,     433,     446,     447,     416,     446,     443
     451,     490,     443,     469,     436,     479,     456,     453
     466,     458,     495,     468,     465,     452,     437,     419
     462,     470,     432,     462,     452,     456,     430,     437
     444,     435,     425,     489,     451,     451,     425,     461
     487,     416,     467,     463,     448,     473,     483,     482
     455,     441,     457,     450,     468,     471,     480,     464
     501,     459,     494,     474,     501,     480,     535,     503
     481,     476,     521,     520,     476,     521,     527,     464
     527,     544,     549,     539,     571,     535,     486,     561
     529,     565,     566,     604,     556,     585,     586,     631
     591,     592,     628,     686,     642,     660,     679,     645
     722,     695,     729,     717,     678,     751,     709,     704
     724,     769,     726,     712,     662,     718,     673,     671
     662,     674,     642,     646,     582,     639,     601,     573
     568,     587,     582,     553,     535,     541,     501,     530
     533,     545,     535,     536,     496,     510,     512,     496
     511,     500,     482,     461,     524,     465,     510,     526
     478,     506,     475,     466,     477,     477,     463,     497
     486,     468,     456,     450,     482,     454,     476,     510
     489,     466,     471,     489,     464,     480,     474,     465
     485,     451,     489,     461,     494,     504,     472,     466
     446,     443,     438,     466,     442,     467,     508,     438
     440,     452,     468,     465,     473,     485,     425,     466
     477,     444,     466,     473,     475,     458,     501,     460
     449,     435,     442,     458,     451,     441,     470,     448
     462,     454,     489,     469,     436,     457,     461,     484
     421,     476,     484,     447,     423,     459,     466,     471
     447,     469,     487,     496,     465,     488,     472,     441
     442,     479,     466,     424,     441,     469,     460,     455
     471,     461,     468,     504,     486,     490,     448,     432
     473,     472,     465,     457,     426,     463,     474,     488
     459,     461,     458,     443,     461,     477,     495,     491
     435,     452,     457,     468,     507,     428,     474,     487
     461,     506,     475,     457,     467,     510,     474,     478
     481,     500,     478,     504,     500,     443,     474,     508
     449,     433,     458,     517,     494,     485,     476,     468
     458,     456,     508,     483,     481,     482,     481,     452
     440,     495,     459,     536,     476,     472,     449,     489
     484,     515,     490,     492,     498,     489,     457,     457
     493,     477,     448,     477,     494,     482,     462,     476
     451,     501,     461,     491,     509,     507,     474,     514
     502,     493,     500,     489,     508,     482,     453,     507
     517,     464,     488,     517,     471,     520,     511,     482
     508,     484,     493,     524,     499,     519,     475,     518
     507,     495,     515,     501,     495,     536,     541,     502
     548,     529,     512,     545,     579,     544,     552,     547
     545,     540,     562,     543,     611,     591,     528,     582
     633,     590,     600,     627,     603,     622,     575,     638
     619,     616,     638,     612,     623,     629,     609,     594
     638,     647,     676,     688,     706,     637,     690,     664
     666,     710,     685,     682,     651,     662,     653,     689
     671,     684,     658,     602,     629,     657,     651,     642
     645,     606,     613,     638,     584,     586,     600,     573
     580,     566,     573,     579,     558,     532,     554,     575
     558,     536,     568,     548,     556,     573,     556,     584
     524,     515,     502,     545,     545,     511,     512,     485
     539,     492,     507,     511,     512,     533,     516,     489
     480,     477,     508,     492,     490,     501,     500,     491
     515,     505,     486,     482,     531,     511,     495,     510
     478,     503,     513,     497,     503,     491,     515,     488
     535,     508,     535,     452,     507,     482,     525,     522
     489,     561,     513,     534,     515,     571,     564,     570
     539,     560,     563,     578,     602,     573,     542,     576
     570,     552,     603,     614,     556,     533,     561,     586
     544,     569,     564,     601,     599,     526,     541,     560
     500,     597,     507,     507,     499,     523,     517,     502
     498,     516,     513,     550,     470,     495,     526,     509
     500,     506,     508,     483,     501,     481,     488,     479
     418,     468,     494,     470,     503,     504,     463,     515
     460,     486,     479,     509,     508,     451,     478,     512
     474,     476,     510,     464,     499,     502,     473,     499
     415,     483,     475,     491,     514,     485,     445,     506
     502,     433,     494,     461,     449,     478,     505,     472
     480,     484,     478,     499,     502,     483,     485,     469
     479,     481,     497,     454,     467,     468,     472,     465
     500,     487,     471,     484,     504,     462,     485,     470
     476,     485,     501,     502,     464,     438,     494,     448
     477,     499,     498,     469,     468,     435,     446,     448
     509,     484,     502,     489,     463,     466,     468,     495
     480,     474,     483,     495,     483,     470,     455,     479
     467,     454,     446,     435,     453,     450,     462,     473
     487,     483,     497,     448,     450,     512,     436,     498
     490,     480,     484,     478,     432,     474,     447,     484
     462,     474,     500,     460,     477,     512,     453,     481
     469,     536,     482,     520,     449,     435,     497,     480
     471,     493,     467,     475,     477,     450,     445,     499
     447,     516,     422,     500,     455,     456,     463,     457
     499,     453,     497,     469,     486,     491,     436,     486
     471,     483,     467,     444,     484,     518,     470,     445
     496,     447,     493,     462,     471,     470,     467,     491
     493,     471,     473,     520,     509,     463,     491,     498
     484,/
