SampleIdent,FeCu lotto 1273 1-024-01,/
Title1,Exported by X'Pert SW,/
Title2,Generated by User-1 in project luca.,/
DiffrType,XPERT,/
DiffrNumber,  1,/
Anode,Cu,/
LabdaAlpha1,  1.54056,/
LabdaAlpha2,  1.54439,/
RatioAlpha21,  0.50000,/
DivergenceSlit,Fixed,1/2,/
ReceivingSlit,Undefined,/
MonochromatorUsed, YES,/
GeneratorVoltage,  40,/
TubeCurrent,  30,/
FileDateTime, 15-oct-2001 20:47,/
DataAngleRange,  35.00000,  105.00000,/
ScanStepSize,  0.05000,/
ScanType,STEP,/
ScanStepTime,  5.00,/
RawScan
     461,     490,     442,     435,     444,     453,     469,     453
     489,     497,     475,     494,     451,     466,     419,     466
     462,     472,     482,     406,     467,     480,     455,     433
     464,     459,     439,     453,     489,     472,     476,     426
     498,     476,     470,     477,     480,     466,     485,     520
     500,     464,     456,     493,     464,     431,     469,     446
     478,     496,     443,     460,     477,     425,     480,     481
     497,     476,     461,     462,     468,     481,     437,     450
     487,     464,     470,     479,     470,     501,     510,     479
     483,     493,     474,     459,     438,     468,     491,     440
     473,     515,     499,     479,     458,     466,     511,     481
     497,     482,     445,     431,     497,     511,     498,     469
     508,     486,     503,     488,     474,     510,     513,     524
     493,     539,     518,     490,     503,     501,     518,     515
     514,     538,     558,     516,     549,     530,     577,     550
     556,     570,     522,     555,     519,     557,     556,     599
     602,     551,     631,     622,     637,     610,     611,     636
     647,     676,     661,     673,     679,     763,     809,     785
     829,     855,     939,     950,     957,    1112,    1226,    1270
    1371,    1416,    1480,    1775,    1881,    1985,    1994,    2187
    2142,    2214,    2146,    2148,    2047,    1978,    1863,    1770
    1659,    1561,    1543,    1470,    1427,    1376,    1383,    1311
    1311,    1423,    1362,    1413,    1408,    1438,    1591,    1618
    1681,    1777,    1812,    1891,    1949,    1987,    1973,    2180
    2227,    2116,    2098,    2032,    1879,    1797,    1699,    1579
    1348,    1291,    1205,    1085,    1036,     937,     941,     818
     925,     811,     853,     740,     751,     724,     685,     647
     697,     672,     646,     633,     638,     662,     605,     611
     588,     618,     646,     597,     566,     602,     593,     594
     614,     565,     556,     517,     557,     538,     554,     569
     591,     588,     516,     582,     583,     553,     555,     542
     534,     555,     539,     552,     532,     550,     564,     604
     549,     554,     549,     542,     532,     607,     578,     572
     600,     534,     556,     573,     603,     587,     542,     542
     553,     619,     620,     621,     645,     608,     665,     630
     616,     654,     700,     633,     715,     688,     724,     653
     660,     728,     722,     721,     756,     746,     847,     775
     746,     832,     819,     811,     808,     810,     850,     808
     829,     813,     844,     781,     745,     699,     755,     724
     728,     724,     672,     683,     673,     616,     664,     656
     592,     601,     545,     611,     603,     576,     571,     593
     601,     577,     558,     536,     528,     588,     506,     525
     537,     505,     502,     511,     554,     527,     536,     518
     544,     500,     535,     527,     493,     492,     499,     487
     494,     501,     544,     496,     530,     492,     450,     446
     504,     478,     484,     483,     501,     461,     539,     473
     502,     482,     495,     458,     457,     476,     495,     504
     523,     476,     497,     474,     456,     448,     477,     487
     461,     498,     531,     508,     497,     468,     484,     478
     504,     489,     460,     470,     482,     488,     478,     495
     468,     480,     487,     472,     463,     436,     515,     482
     481,     457,     517,     453,     464,     444,     481,     522
     463,     471,     465,     465,     500,     539,     483,     442
     457,     491,     480,     478,     424,     441,     450,     517
     490,     476,     463,     489,     470,     466,     506,     462
     467,     509,     473,     494,     494,     488,     434,     480
     472,     469,     457,     470,     504,     477,     494,     494
     464,     509,     501,     487,     466,     456,     448,     470
     491,     454,     463,     471,     478,     499,     445,     508
     526,     495,     503,     475,     461,     432,     485,     482
     467,     478,     430,     468,     463,     467,     508,     421
     454,     483,     477,     497,     479,     512,     509,     508
     478,     490,     494,     480,     481,     509,     461,     440
     451,     493,     508,     480,     459,     460,     478,     510
     482,     482,     520,     476,     482,     473,     487,     489
     547,     476,     526,     491,     477,     507,     507,     471
     540,     507,     553,     483,     424,     466,     471,     503
     457,     446,     497,     506,     470,     469,     471,     502
     471,     508,     487,     490,     516,     540,     522,     521
     473,     470,     519,     473,     504,     504,     513,     529
     490,     490,     481,     510,     550,     497,     509,     531
     483,     524,     528,     531,     524,     583,     536,     547
     523,     543,     554,     561,     542,     541,     532,     531
     564,     511,     567,     540,     546,     545,     542,     602
     604,     564,     601,     579,     595,     594,     602,     617
     564,     575,     584,     582,     579,     603,     548,     542
     563,     581,     599,     583,     584,     534,     515,     518
     544,     519,     574,     519,     523,     516,     498,     527
     495,     477,     497,     527,     543,     488,     524,     494
     544,     499,     515,     511,     521,     497,     509,     540
     499,     498,     522,     490,     504,     513,     449,     500
     520,     504,     508,     498,     463,     490,     444,     499
     488,     492,     464,     494,     505,     505,     487,     522
     486,     512,     523,     497,     506,     521,     511,     471
     528,     517,     495,     501,     524,     488,     494,     494
     508,     462,     468,     502,     527,     525,     492,     508
     528,     533,     516,     469,     547,     505,     473,     448
     487,     478,     472,     501,     509,     492,     524,     512
     523,     504,     491,     495,     485,     502,     486,     502
     489,     506,     518,     530,     524,     477,     508,     518
     508,     521,     522,     509,     510,     522,     504,     508
     528,     522,     540,     538,     555,     474,     574,     512
     499,     532,     539,     527,     527,     502,     503,     571
     535,     542,     562,     549,     572,     573,     538,     550
     541,     552,     581,     606,     563,     636,     596,     607
     607,     672,     653,     645,     654,     608,     659,     631
     643,     678,     670,     647,     651,     664,     623,     629
     619,     681,     641,     631,     653,     623,     649,     638
     639,     619,     560,     604,     600,     569,     625,     614
     606,     597,     560,     563,     552,     526,     525,     573
     540,     557,     591,     521,     520,     525,     522,     540
     527,     547,     501,     559,     519,     517,     530,     554
     547,     510,     516,     468,     540,     513,     526,     509
     494,     509,     512,     504,     528,     522,     507,     564
     570,     545,     510,     541,     511,     535,     511,     532
     532,     534,     509,     527,     499,     488,     509,     513
     513,     513,     492,     513,     496,     552,     532,     490
     509,     476,     489,     516,     531,     501,     506,     535
     548,     515,     499,     560,     534,     536,     538,     506
     570,     532,     515,     507,     518,     525,     510,     570
     503,     514,     513,     521,     521,     496,     466,     555
     508,     525,     511,     546,     505,     516,     489,     528
     511,     477,     512,     528,     502,     546,     547,     532
     541,     525,     534,     545,     552,     524,     590,     524
     556,     576,     546,     580,     529,     561,     550,     580
     590,     575,     581,     576,     613,     616,     582,     631
     599,     650,     646,     625,     665,     680,     687,     695
     650,     708,     721,     695,     738,     751,     761,     761
     763,     761,     711,     762,     743,     704,     781,     744
     713,     744,     695,     693,     675,     638,     660,     679
     648,     663,     606,     653,     614,     579,     617,     577
     617,     579,     577,     600,     559,     603,     545,     563
     528,     575,     596,     549,     560,     555,     521,     503
     565,     538,     567,     550,     538,     532,     543,     523
     558,     524,     478,     531,     553,     541,     535,     532
     504,     578,     536,     498,     547,     508,     542,     554
     544,     479,     573,     542,     543,     508,     514,     522
     552,     562,     534,     493,     609,     516,     565,     516
     532,     512,     494,     585,     550,     561,     517,     524
     542,     552,     514,     520,     526,     545,     561,     576
     552,     547,     564,     573,     530,     568,     554,     570
     573,     518,     553,     549,     598,     561,     584,     564
     564,     573,     583,     577,     586,     614,     591,     606
     604,     592,     668,     610,     627,     589,     597,     671
     653,     617,     658,     627,     654,     642,     639,     659
     627,     675,     621,     631,     626,     659,     669,     677
     652,     627,     644,     646,     577,     648,     627,     624
     612,     612,     606,     579,     609,     626,     607,     621
     591,     622,     587,     613,     622,     579,     575,     571
     554,     585,     626,     595,     558,     550,     580,     534
     527,     555,     593,     573,     517,     536,     535,     571
     533,     565,     516,     516,     548,     514,     527,     505
     537,     484,     511,     541,     534,     528,     499,     556
     516,     525,     539,     557,     542,     537,     513,     519
     546,     539,     508,     553,     551,     558,     511,     545
     521,     525,     534,     565,     587,     528,     528,     501
     566,     544,     532,     525,     531,     574,     565,     571
     552,     571,     579,     582,     536,     594,     638,     557
     629,     548,     568,     550,     567,     591,     596,     600
     563,     567,     554,     584,     543,     590,     575,     577
     568,     577,     567,     549,     525,     548,     559,     519
     549,     568,     555,     561,     568,     513,     554,     509
     550,     523,     543,     512,     521,     534,     535,     540
     553,     546,     522,     517,     558,     572,     543,     589
     565,     501,     517,     547,     522,     538,     562,     527
     566,     499,     546,     540,     498,     512,     567,     526
     558,     513,     500,     513,     578,     525,     494,     544
     558,     565,     536,     528,     557,     533,     540,     549
     567,     526,     547,     552,     588,     585,     595,     576
     522,     610,     585,     615,     576,     572,     587,     570
     585,     563,     579,     565,     585,     555,     590,     582
     535,     555,     583,     605,     519,     571,     539,     552
     577,     538,     529,     524,     535,     546,     508,     471
     520,     573,     494,     529,     544,     509,     510,     542
     509,     507,     517,     494,     503,     542,     522,     520
     496,     515,     548,     532,     512,     507,     489,     554
     517,     481,     488,     550,     552,     505,     549,     489
     528,     559,     526,     524,     503,     476,     517,     493
     520,     547,     525,     488,     495,     498,     521,     527
     536,     525,     493,     502,     471,     518,     473,     509
     496,     488,     528,     501,     467,     486,     500,     516
     509,     490,     511,     521,     522,     494,     511,     497
     518,     473,     524,     518,     514,     556,     521,     507
     528,     448,     526,     504,     501,     532,     520,     501
     524,     507,     484,     526,     516,     501,     493,     548
     546,/
