SampleIdent,FeCu lotto 1221 1-021-01,/
Title1,Exported by X'Pert SW,/
Title2,Generated by User-1 in project luca.,/
DiffrType,XPERT,/
DiffrNumber,  1,/
Anode,Cu,/
LabdaAlpha1,  1.54056,/
LabdaAlpha2,  1.54439,/
RatioAlpha21,  0.50000,/
DivergenceSlit,Fixed,1/2,/
ReceivingSlit,Undefined,/
MonochromatorUsed, YES,/
GeneratorVoltage,  40,/
TubeCurrent,  30,/
FileDateTime, 15-oct-2001 15:04,/
DataAngleRange,  35.00000,  105.00000,/
ScanStepSize,  0.05000,/
ScanType,STEP,/
ScanStepTime,  5.00,/
RawScan
     509,     495,     518,     497,     507,     512,     519,     498
     497,     535,     518,     498,     486,     481,     500,     498
     499,     512,     514,     489,     529,     496,     504,     529
     497,     494,     508,     522,     530,     540,     474,     519
     500,     503,     518,     517,     530,     481,     502,     496
     512,     555,     526,     493,     471,     450,     521,     505
     498,     497,     471,     521,     489,     472,     507,     503
     512,     481,     531,     522,     483,     507,     521,     458
     458,     479,     484,     516,     500,     541,     509,     513
     495,     518,     495,     517,     504,     502,     510,     458
     494,     482,     476,     502,     509,     505,     530,     537
     486,     500,     497,     478,     484,     501,     480,     531
     502,     496,     498,     453,     555,     490,     471,     481
     503,     543,     515,     512,     541,     506,     546,     535
     515,     556,     506,     554,     548,     520,     498,     539
     549,     545,     548,     529,     546,     537,     515,     530
     515,     564,     551,     548,     589,     582,     605,     597
     613,     588,     623,     553,     608,     631,     618,     654
     613,     655,     704,     676,     713,     792,     786,     804
     848,     925,     976,    1040,    1122,    1165,    1198,    1419
    1558,    1830,    2065,    2402,    2682,    2754,    2852,    2801
    2535,    2094,    1871,    1638,    1377,    1272,    1136,    1058
    1013,     959,     985,     918,     931,     983,    1026,    1101
    1250,    1369,    1498,    1790,    2111,    2737,    3323,    4143
    4861,    5122,    4773,    4084,    3302,    2605,    1986,    1577
    1287,    1158,    1016,     853,     849,     786,     760,     775
     699,     679,     690,     627,     659,     582,     586,     571
     578,     597,     566,     528,     569,     556,     569,     515
     533,     547,     549,     517,     525,     523,     571,     529
     527,     539,     555,     519,     543,     556,     528,     524
     537,     560,     563,     508,     551,     509,     543,     569
     530,     519,     552,     500,     523,     551,     520,     571
     512,     523,     565,     520,     541,     514,     496,     562
     518,     555,     537,     521,     544,     516,     554,     563
     559,     537,     541,     550,     525,     543,     524,     552
     590,     569,     535,     583,     612,     568,     633,     636
     572,     636,     632,     588,     653,     606,     642,     679
     692,     715,     731,     840,     793,     865,     947,     991
    1031,    1078,    1141,    1136,    1150,    1157,    1150,     992
    1013,     964,     883,     756,     793,     747,     718,     698
     632,     661,     615,     636,     556,     579,     597,     594
     566,     554,     568,     580,     538,     506,     527,     519
     572,     505,     566,     515,     534,     567,     511,     528
     509,     530,     526,     525,     559,     499,     515,     547
     546,     501,     500,     540,     530,     485,     500,     521
     506,     534,     473,     567,     506,     518,     491,     528
     546,     483,     545,     478,     513,     505,     568,     479
     550,     477,     481,     533,     494,     541,     531,     519
     495,     477,     499,     548,     496,     493,     476,     493
     538,     518,     505,     479,     537,     501,     534,     485
     533,     535,     522,     497,     487,     479,     495,     514
     499,     520,     514,     489,     490,     562,     523,     517
     530,     513,     535,     533,     513,     543,     499,     518
     480,     502,     549,     522,     517,     512,     511,     494
     539,     505,     531,     524,     529,     506,     546,     529
     522,     531,     524,     522,     525,     522,     519,     523
     523,     522,     531,     482,     511,     538,     518,     496
     552,     531,     572,     492,     494,     542,     525,     547
     521,     535,     540,     521,     493,     502,     510,     526
     562,     525,     508,     511,     530,     528,     508,     488
     534,     505,     532,     512,     514,     548,     523,     518
     516,     557,     487,     545,     531,     537,     542,     521
     482,     530,     521,     529,     520,     527,     526,     502
     516,     514,     524,     521,     538,     540,     534,     513
     499,     536,     519,     541,     520,     550,     517,     520
     517,     539,     502,     537,     512,     498,     513,     518
     567,     512,     521,     548,     537,     526,     498,     502
     572,     550,     554,     559,     530,     500,     533,     573
     516,     528,     532,     528,     503,     511,     497,     500
     546,     528,     574,     564,     557,     574,     543,     544
     537,     545,     522,     558,     548,     528,     551,     545
     568,     571,     546,     532,     570,     523,     600,     539
     537,     591,     532,     642,     611,     605,     620,     626
     686,     614,     667,     678,     728,     708,     749,     838
     871,     943,     984,    1046,    1181,    1257,    1349,    1331
    1365,    1390,    1355,    1289,    1190,    1055,     981,     954
     859,     787,     812,     782,     707,     670,     652,     694
     670,     616,     637,     597,     567,     609,     582,     532
     581,     552,     582,     535,     565,     575,     521,     545
     581,     544,     527,     547,     553,     538,     508,     541
     559,     525,     542,     532,     554,     561,     576,     511
     538,     510,     534,     530,     528,     519,     518,     562
     535,     512,     542,     547,     526,     534,     548,     527
     515,     531,     513,     525,     521,     549,     555,     534
     502,     546,     545,     527,     534,     541,     522,     522
     533,     549,     543,     531,     524,     535,     545,     513
     540,     501,     578,     512,     559,     522,     542,     534
     511,     512,     538,     552,     543,     547,     579,     509
     527,     495,     506,     534,     521,     515,     514,     525
     563,     516,     558,     560,     545,     539,     553,     522
     565,     555,     546,     568,     562,     554,     558,     550
     544,     532,     513,     545,     563,     582,     552,     556
     578,     520,     525,     555,     543,     546,     574,     537
     560,     563,     604,     583,     551,     553,     545,     558
     570,     540,     580,     643,     597,     568,     590,     609
     622,     625,     641,     542,     656,     630,     588,     646
     625,     653,     634,     718,     696,     705,     717,     750
     752,     813,     828,     917,     859,     887,     838,     877
     873,     813,     862,     806,     815,     712,     767,     759
     708,     664,     652,     639,     630,     581,     606,     583
     575,     575,     598,     570,     576,     605,     614,     513
     598,     601,     599,     544,     573,     566,     545,     566
     570,     536,     524,     559,     559,     602,     544,     563
     562,     555,     564,     552,     517,     531,     515,     555
     542,     571,     553,     560,     523,     536,     525,     540
     520,     536,     557,     522,     622,     501,     535,     525
     530,     565,     564,     528,     527,     531,     537,     546
     529,     546,     590,     533,     524,     532,     611,     536
     568,     554,     580,     554,     558,     526,     529,     551
     582,     543,     556,     556,     534,     539,     557,     566
     570,     562,     589,     569,     567,     537,     570,     546
     551,     559,     523,     514,     560,     505,     513,     536
     520,     569,     541,     576,     536,     531,     559,     554
     518,     578,     539,     592,     573,     562,     565,     544
     517,     589,     524,     548,     563,     600,     549,     593
     573,     571,     596,     619,     586,     609,     582,     615
     574,     639,     630,     678,     681,     652,     680,     709
     773,     755,     831,     866,     941,    1058,    1192,    1295
    1363,    1415,    1427,    1420,    1449,    1360,    1248,    1230
    1178,    1054,     943,     910,     838,     812,     724,     727
     666,     668,     660,     648,     630,     667,     624,     586
     579,     621,     593,     559,     564,     582,     537,     570
     578,     545,     541,     608,     554,     589,     551,     546
     527,     585,     582,     564,     555,     538,     530,     551
     520,     544,     536,     536,     545,     585,     569,     589
     563,     578,     523,     585,     526,     572,     550,     503
     549,     545,     555,     547,     544,     532,     541,     577
     524,     589,     539,     476,     568,     557,     578,     568
     533,     579,     533,     533,     552,     549,     550,     551
     573,     510,     604,     561,     569,     561,     540,     581
     606,     577,     576,     570,     544,     559,     541,     581
     556,     568,     558,     530,     591,     577,     599,     583
     580,     569,     580,     581,     571,     632,     559,     578
     576,     541,     542,     599,     604,     571,     609,     617
     594,     597,     581,     597,     631,     613,     580,     627
     602,     607,     607,     648,     730,     636,     704,     673
     693,     749,     762,     791,     811,     807,     816,     877
     810,     830,     850,     850,     811,     813,     828,     799
     803,     760,     738,     737,     739,     731,     667,     684
     641,     704,     626,     615,     635,     609,     611,     633
     596,     600,     602,     612,     641,     565,     555,     545
     523,     588,     559,     594,     580,     565,     598,     598
     595,     543,     590,     614,     557,     587,     544,     549
     554,     532,     585,     504,     554,     546,     540,     516
     558,     568,     570,     559,     574,     540,     601,     590
     563,     568,     607,     531,     538,     547,     539,     587
     580,     525,     573,     594,     579,     567,     566,     587
     589,     601,     539,     579,     591,     635,     552,     545
     558,     539,     574,     604,     616,     555,     539,     564
     582,     638,     613,     595,     649,     606,     612,     700
     647,     679,     666,     645,     666,     694,     652,     610
     642,     658,     640,     611,     579,     601,     607,     599
     561,     581,     604,     590,     587,     543,     573,     544
     548,     525,     580,     570,     557,     555,     510,     521
     547,     588,     569,     565,     591,     578,     547,     525
     541,     591,     560,     565,     584,     543,     556,     573
     548,     539,     511,     611,     603,     577,     570,     556
     607,     578,     540,     568,     607,     576,     577,     601
     600,     638,     603,     594,     605,     651,     656,     657
     657,     701,     722,     760,     739,     771,     799,     700
     788,     706,     709,     727,     724,     745,     686,     668
     646,     640,     667,     600,     603,     609,     621,     600
     609,     604,     562,     551,     589,     595,     567,     558
     571,     579,     591,     566,     585,     544,     563,     577
     579,     554,     548,     567,     578,     572,     566,     585
     593,     590,     552,     539,     556,     579,     570,     512
     559,     555,     536,     537,     580,     589,     562,     568
     550,     580,     554,     537,     580,     558,     530,     532
     527,     561,     539,     537,     557,     514,     572,     530
     596,     583,     610,     568,     539,     516,     546,     496
     573,     558,     575,     565,     558,     549,     565,     572
     533,     538,     542,     533,     589,     553,     568,     574
     572,     541,     542,     572,     559,     538,     585,     605
     579,     550,     580,     571,     539,     524,     566,     553
     513,     583,     538,     551,     555,     570,     537,     538
     627,/
