SampleIdent,FeCu lotto 1292 1-027-01,/
Title1,Exported by X'Pert SW,/
Title2,Generated by User-1 in project luca.,/
DiffrType,XPERT,/
DiffrNumber,  1,/
Anode,Cu,/
LabdaAlpha1,  1.54056,/
LabdaAlpha2,  1.54439,/
RatioAlpha21,  0.50000,/
DivergenceSlit,Fixed,1/2,/
ReceivingSlit,Undefined,/
MonochromatorUsed, YES,/
GeneratorVoltage,  40,/
TubeCurrent,  30,/
FileDateTime, 16-oct-2001 14:09,/
DataAngleRange,  35.00000,  105.00000,/
ScanStepSize,  0.05000,/
ScanType,STEP,/
ScanStepTime,  5.00,/
RawScan
     546,     570,     587,     606,     576,     562,     583,     606
     565,     556,     591,     592,     554,     561,     503,     637
     577,     609,     544,     571,     554,     559,     552,     541
     569,     587,     593,     569,     566,     592,     582,     554
     620,     555,     583,     585,     577,     619,     592,     538
     640,     539,     598,     562,     561,     573,     552,     611
     569,     587,     591,     575,     603,     572,     588,     597
     584,     552,     594,     590,     599,     563,     584,     563
     551,     631,     608,     612,     570,     590,     572,     610
     581,     561,     569,     573,     618,     606,     603,     605
     624,     653,     624,     573,     611,     676,     625,     588
     646,     590,     642,     583,     660,     564,     610,     610
     614,     637,     594,     628,     662,     605,     620,     655
     643,     668,     632,     606,     662,     651,     691,     651
     650,     640,     652,     653,     625,     705,     706,     648
     667,     678,     676,     711,     722,     735,     697,     735
     763,     816,     730,     795,     746,     761,     822,     850
     869,     854,     897,     923,     990,     961,    1031,    1029
    1146,    1238,    1200,    1393,    1344,    1556,    1667,    1855
    2037,    2231,    2415,    2717,    2827,    3071,    3172,    3240
    3359,    3186,    3180,    3079,    2936,    2871,    2583,    2497
    2254,    2097,    2018,    1931,    1788,    1867,    1717,    1745
    1557,    1663,    1698,    1702,    1667,    1829,    1785,    1862
    1983,    2012,    2148,    2104,    2144,    2224,    2292,    2346
    2326,    2313,    2278,    2104,    2013,    1941,    1715,    1760
    1536,    1489,    1431,    1283,    1249,    1197,    1180,    1037
    1031,     985,     966,     937,     948,     909,     831,     854
     828,     770,     828,     742,     786,     794,     705,     719
     706,     740,     738,     687,     700,     723,     725,     753
     717,     719,     723,     676,     678,     686,     714,     704
     733,     672,     704,     736,     711,     719,     675,     719
     661,     651,     673,     676,     678,     705,     683,     677
     720,     676,     726,     657,     702,     728,     740,     671
     692,     686,     698,     716,     696,     729,     759,     716
     739,     781,     798,     761,     729,     742,     741,     793
     768,     793,     872,     807,     891,     871,     905,     890
     856,     912,     878,     924,     958,     958,     967,    1007
    1027,    1044,     968,    1007,    1027,    1056,    1003,    1005
     969,     960,     961,     976,     924,     899,     910,     896
     855,     849,     871,     836,     804,     793,     721,     745
     774,     735,     700,     695,     711,     707,     661,     736
     700,     644,     669,     656,     596,     667,     673,     666
     605,     625,     629,     646,     631,     620,     670,     624
     585,     639,     582,     673,     576,     597,     653,     641
     651,     644,     582,     618,     623,     615,     598,     580
     630,     570,     584,     597,     577,     605,     640,     599
     602,     568,     587,     623,     650,     591,     621,     541
     616,     593,     560,     607,     586,     606,     598,     625
     601,     590,     589,     599,     590,     605,     598,     591
     599,     579,     601,     585,     606,     594,     577,     567
     587,     539,     593,     548,     597,     612,     641,     556
     547,     591,     544,     596,     570,     631,     568,     565
     537,     539,     581,     627,     606,     579,     582,     589
     551,     613,     559,     604,     558,     638,     586,     594
     572,     563,     598,     560,     541,     606,     552,     625
     598,     627,     605,     576,     591,     596,     592,     587
     560,     578,     592,     545,     611,     577,     568,     583
     627,     588,     592,     594,     603,     577,     579,     588
     616,     542,     575,     556,     534,     567,     542,     598
     563,     618,     567,     569,     563,     599,     620,     600
     577,     551,     623,     609,     572,     621,     632,     566
     572,     543,     608,     537,     594,     564,     595,     583
     557,     568,     591,     563,     553,     542,     586,     541
     571,     587,     604,     602,     590,     575,     555,     554
     575,     614,     607,     625,     606,     592,     600,     551
     562,     589,     592,     617,     579,     620,     579,     586
     556,     654,     614,     604,     599,     596,     597,     593
     582,     590,     594,     591,     617,     622,     578,     571
     613,     581,     580,     613,     591,     567,     541,     616
     645,     577,     608,     604,     591,     647,     599,     591
     602,     601,     622,     607,     647,     600,     614,     640
     599,     621,     616,     600,     643,     658,     649,     635
     627,     646,     652,     628,     588,     670,     625,     694
     669,     659,     648,     653,     665,     702,     680,     664
     694,     683,     711,     705,     690,     711,     746,     703
     739,     714,     730,     696,     740,     720,     699,     672
     665,     660,     698,     638,     675,     652,     664,     688
     706,     657,     671,     694,     640,     623,     624,     678
     653,     642,     631,     617,     606,     644,     648,     620
     537,     614,     573,     605,     572,     620,     613,     626
     604,     565,     603,     622,     639,     596,     589,     618
     572,     599,     601,     623,     600,     629,     590,     572
     599,     623,     588,     578,     575,     565,     606,     584
     575,     619,     572,     634,     589,     588,     589,     585
     601,     583,     593,     566,     567,     569,     591,     618
     577,     612,     570,     586,     614,     633,     587,     589
     605,     586,     582,     562,     610,     616,     545,     603
     589,     583,     592,     597,     593,     526,     569,     587
     607,     590,     596,     575,     572,     625,     583,     625
     619,     596,     618,     609,     601,     641,     618,     597
     629,     596,     613,     620,     643,     590,     596,     605
     635,     671,     676,     658,     618,     639,     668,     636
     621,     649,     605,     680,     634,     685,     627,     665
     679,     707,     694,     684,     701,     679,     734,     779
     743,     747,     755,     789,     814,     767,     805,     782
     807,     820,     907,     856,     850,     892,     855,     814
     879,     947,     850,     910,     931,     908,     855,     882
     880,     853,     871,     850,     898,     879,     842,     830
     825,     772,     776,     739,     727,     680,     765,     714
     699,     694,     744,     662,     678,     678,     708,     693
     692,     664,     696,     663,     640,     611,     620,     637
     682,     621,     639,     640,     661,     620,     651,     662
     635,     605,     636,     596,     640,     622,     613,     595
     627,     610,     602,     588,     627,     605,     627,     687
     603,     630,     575,     636,     627,     621,     644,     599
     641,     603,     597,     555,     596,     587,     601,     587
     613,     623,     610,     617,     601,     653,     659,     609
     629,     592,     595,     613,     602,     562,     599,     630
     605,     590,     628,     650,     594,     651,     605,     646
     623,     630,     583,     608,     610,     633,     645,     636
     612,     631,     625,     617,     633,     602,     582,     644
     650,     649,     618,     609,     634,     609,     640,     647
     647,     642,     638,     603,     652,     621,     595,     607
     568,     676,     662,     654,     613,     674,     679,     666
     664,     658,     640,     679,     635,     625,     631,     702
     730,     742,     669,     711,     710,     748,     700,     732
     767,     769,     717,     749,     743,     781,     769,     804
     805,     782,     816,     824,     787,     790,     905,     815
     888,     825,     881,     887,     905,     865,     801,     828
     822,     851,     821,     782,     806,     741,     728,     757
     781,     732,     685,     774,     730,     679,     734,     754
     728,     689,     716,     693,     674,     657,     680,     668
     662,     655,     623,     650,     651,     660,     609,     642
     686,     645,     591,     647,     656,     621,     611,     661
     626,     635,     605,     634,     608,     573,     660,     611
     659,     589,     643,     656,     666,     609,     660,     595
     614,     616,     626,     652,     630,     664,     668,     638
     608,     627,     715,     654,     617,     631,     620,     613
     603,     678,     579,     586,     628,     660,     617,     651
     680,     636,     617,     646,     637,     654,     618,     640
     616,     672,     637,     693,     680,     684,     686,     701
     682,     693,     639,     663,     632,     705,     717,     660
     702,     672,     720,     743,     719,     699,     741,     734
     709,     747,     752,     758,     728,     812,     768,     735
     826,     781,     757,     807,     808,     784,     789,     810
     792,     800,     788,     816,     786,     836,     765,     747
     796,     758,     774,     758,     739,     760,     793,     744
     683,     710,     754,     710,     686,     752,     635,     727
     735,     737,     689,     695,     700,     664,     621,     664
     661,     709,     658,     655,     666,     693,     660,     692
     631,     674,     671,     643,     630,     628,     603,     576
     637,     647,     676,     637,     593,     660,     645,     613
     576,     603,     615,     600,     648,     600,     616,     615
     616,     633,     633,     642,     594,     596,     631,     615
     572,     604,     633,     622,     648,     643,     642,     632
     608,     584,     620,     630,     631,     616,     645,     639
     666,     627,     698,     652,     639,     666,     647,     640
     706,     665,     681,     691,     690,     695,     659,     684
     678,     696,     728,     686,     684,     690,     731,     757
     701,     717,     710,     679,     678,     625,     679,     634
     653,     599,     616,     648,     692,     642,     623,     635
     660,     670,     636,     581,     623,     691,     637,     635
     618,     632,     607,     643,     611,     574,     617,     634
     618,     632,     638,     599,     592,     627,     608,     641
     625,     612,     588,     592,     643,     623,     619,     593
     624,     597,     622,     631,     624,     568,     602,     629
     570,     656,     626,     647,     578,     629,     638,     622
     660,     647,     630,     660,     641,     631,     603,     629
     640,     674,     643,     658,     614,     595,     643,     623
     617,     652,     633,     654,     689,     614,     710,     650
     666,     654,     631,     668,     664,     582,     622,     646
     641,     631,     622,     606,     647,     602,     620,     663
     609,     619,     521,     631,     616,     557,     620,     571
     582,     658,     639,     638,     587,     646,     651,     605
     631,     628,     567,     585,     624,     534,     592,     586
     595,     621,     589,     590,     578,     573,     616,     617
     617,     603,     587,     607,     592,     616,     592,     619
     566,     585,     592,     600,     599,     610,     573,     585
     574,     587,     605,     578,     614,     539,     596,     603
     553,     600,     554,     582,     591,     590,     568,     574
     585,     554,     583,     564,     611,     555,     596,     578
     612,     595,     586,     598,     600,     618,     579,     587
     597,     599,     583,     569,     559,     573,     611,     605
     618,     649,     551,     575,     578,     582,     563,     579
     597,     595,     577,     622,     591,     580,     576,     554
     625,/
