PWDR ff_004332_sum_norm_dc_0.tif Azm= 352.fxye Bank 1
2-Theta Angle (Degrees)
Intensity
       1500
 3.0000000e+00   4.4216167e+01
 3.0054667e+00   4.3909961e+01
 3.0109333e+00   4.3710614e+01
 3.0164000e+00   4.3611005e+01
 3.0218667e+00   4.3189795e+01
 3.0273333e+00   4.3257802e+01
 3.0328000e+00   4.3054100e+01
 3.0382667e+00   4.2965880e+01
 3.0437333e+00   4.2678268e+01
 3.0492000e+00   4.2749162e+01
 3.0546667e+00   4.2555969e+01
 3.0601333e+00   4.2365491e+01
 3.0656000e+00   4.2181795e+01
 3.0710667e+00   4.1979776e+01
 3.0765333e+00   4.1680496e+01
 3.0820000e+00   4.1486112e+01
 3.0874667e+00   4.1183697e+01
 3.0929333e+00   4.0870003e+01
 3.0984000e+00   4.0613829e+01
 3.1038667e+00   4.0350213e+01
 3.1093333e+00   4.0161803e+01
 3.1148000e+00   3.9900192e+01
 3.1202667e+00   3.9864962e+01
 3.1257333e+00   3.9654724e+01
 3.1312000e+00   3.9449722e+01
 3.1366667e+00   3.9412746e+01
 3.1421333e+00   3.9200825e+01
 3.1476000e+00   3.8971926e+01
 3.1530667e+00   3.8814630e+01
 3.1585333e+00   3.8608091e+01
 3.1640000e+00   3.8478475e+01
 3.1694667e+00   3.8374730e+01
 3.1749333e+00   3.8093890e+01
 3.1804000e+00   3.7915399e+01
 3.1858667e+00   3.7813052e+01
 3.1913333e+00   3.7740771e+01
 3.1968000e+00   3.7442080e+01
 3.2022667e+00   3.7649216e+01
 3.2077333e+00   3.7364853e+01
 3.2132000e+00   3.7406045e+01
 3.2186667e+00   3.7138339e+01
 3.2241333e+00   3.7077489e+01
 3.2296000e+00   3.6775857e+01
 3.2350667e+00   3.6743434e+01
 3.2405333e+00   3.6513052e+01
 3.2460000e+00   3.6466155e+01
 3.2514667e+00   3.6283006e+01
 3.2569333e+00   3.6070211e+01
 3.2624000e+00   3.6102930e+01
 3.2678667e+00   3.5854494e+01
 3.2733333e+00   3.5851373e+01
 3.2788000e+00   3.5742161e+01
 3.2842667e+00   3.5769146e+01
 3.2897333e+00   3.5631854e+01
 3.2952000e+00   3.5487906e+01
 3.3006667e+00   3.5422256e+01
 3.3061333e+00   3.5303130e+01
 3.3116000e+00   3.5104400e+01
 3.3170667e+00   3.5105348e+01
 3.3225333e+00   3.4850424e+01
 3.3280000e+00   3.4920614e+01
 3.3334667e+00   3.4686161e+01
 3.3389333e+00   3.4718839e+01
 3.3444000e+00   3.4616724e+01
 3.3498667e+00   3.4459004e+01
 3.3553333e+00   3.4462466e+01
 3.3608000e+00   3.4266036e+01
 3.3662667e+00   3.4253052e+01
 3.3717333e+00   3.4071540e+01
 3.3772000e+00   3.4062415e+01
 3.3826667e+00   3.3974551e+01
 3.3881333e+00   3.3830404e+01
 3.3936000e+00   3.3912011e+01
 3.3990667e+00   3.3752243e+01
 3.4045333e+00   3.3667053e+01
 3.4100000e+00   3.3671515e+01
 3.4154667e+00   3.3588137e+01
 3.4209333e+00   3.3447094e+01
 3.4264000e+00   3.3367243e+01
 3.4318667e+00   3.3310493e+01
 3.4373333e+00   3.3256022e+01
 3.4428000e+00   3.3222541e+01
 3.4482667e+00   3.3241916e+01
 3.4537333e+00   3.3083759e+01
 3.4592000e+00   3.2989941e+01
 3.4646667e+00   3.2928080e+01
 3.4701333e+00   3.2855951e+01
 3.4756000e+00   3.2736193e+01
 3.4810667e+00   3.2742616e+01
 3.4865333e+00   3.2758685e+01
 3.4920000e+00   3.2702099e+01
 3.4974667e+00   3.2716825e+01
 3.5029333e+00   3.2613805e+01
 3.5084000e+00   3.2597971e+01
 3.5138667e+00   3.2503595e+01
 3.5193333e+00   3.2537977e+01
 3.5248000e+00   3.2476375e+01
 3.5302667e+00   3.2506861e+01
 3.5357333e+00   3.2362106e+01
 3.5412000e+00   3.2470281e+01
 3.5466667e+00   3.2413736e+01
 3.5521333e+00   3.2473144e+01
 3.5576000e+00   3.2442308e+01
 3.5630667e+00   3.2540532e+01
 3.5685333e+00   3.2649091e+01
 3.5740000e+00   3.2617462e+01
 3.5794667e+00   3.2606335e+01
 3.5849333e+00   3.2635418e+01
 3.5904000e+00   3.2537881e+01
 3.5958667e+00   3.2484039e+01
 3.6013333e+00   3.2500391e+01
 3.6068000e+00   3.2307952e+01
 3.6122667e+00   3.2328612e+01
 3.6177333e+00   3.2168126e+01
 3.6232000e+00   3.2168280e+01
 3.6286667e+00   3.1873064e+01
 3.6341333e+00   3.1977253e+01
 3.6396000e+00   3.1744270e+01
 3.6450667e+00   3.1825681e+01
 3.6505333e+00   3.1658360e+01
 3.6560000e+00   3.1766109e+01
 3.6614667e+00   3.1523735e+01
 3.6669333e+00   3.1638573e+01
 3.6724000e+00   3.1522850e+01
 3.6778667e+00   3.1519350e+01
 3.6833333e+00   3.1556428e+01
 3.6888000e+00   3.1447601e+01
 3.6942667e+00   3.1598156e+01
 3.6997333e+00   3.1444000e+01
 3.7052000e+00   3.1481225e+01
 3.7106667e+00   3.1489789e+01
 3.7161333e+00   3.1429581e+01
 3.7216000e+00   3.1439445e+01
 3.7270667e+00   3.1371478e+01
 3.7325333e+00   3.1371109e+01
 3.7380000e+00   3.1453762e+01
 3.7434667e+00   3.1416669e+01
 3.7489333e+00   3.1398130e+01
 3.7544000e+00   3.1348657e+01
 3.7598667e+00   3.1312686e+01
 3.7653333e+00   3.1289310e+01
 3.7708000e+00   3.1288206e+01
 3.7762667e+00   3.1390416e+01
 3.7817333e+00   3.1336179e+01
 3.7872000e+00   3.1379065e+01
 3.7926667e+00   3.1394163e+01
 3.7981333e+00   3.1436165e+01
 3.8036000e+00   3.1329933e+01
 3.8090667e+00   3.1385027e+01
 3.8145333e+00   3.1349221e+01
 3.8200000e+00   3.1297500e+01
 3.8254667e+00   3.1437028e+01
 3.8309333e+00   3.1358211e+01
 3.8364000e+00   3.1333205e+01
 3.8418667e+00   3.1305201e+01
 3.8473333e+00   3.1446934e+01
 3.8528000e+00   3.1440710e+01
 3.8582667e+00   3.1501627e+01
 3.8637333e+00   3.1523624e+01
 3.8692000e+00   3.1561667e+01
 3.8746667e+00   3.1483428e+01
 3.8801333e+00   3.1602395e+01
 3.8856000e+00   3.1525610e+01
 3.8910667e+00   3.1715344e+01
 3.8965333e+00   3.1612225e+01
 3.9020000e+00   3.1768926e+01
 3.9074667e+00   3.1750929e+01
 3.9129333e+00   3.1795338e+01
 3.9184000e+00   3.1851365e+01
 3.9238667e+00   3.1889419e+01
 3.9293333e+00   3.2134236e+01
 3.9348000e+00   3.2130588e+01
 3.9402667e+00   3.2354576e+01
 3.9457333e+00   3.2494042e+01
 3.9512000e+00   3.2605710e+01
 3.9566667e+00   3.2763880e+01
 3.9621333e+00   3.2894704e+01
 3.9676000e+00   3.2906764e+01
 3.9730667e+00   3.2881316e+01
 3.9785333e+00   3.2821993e+01
 3.9840000e+00   3.2810235e+01
 3.9894667e+00   3.2717948e+01
 3.9949333e+00   3.2891845e+01
 4.0004000e+00   3.2712291e+01
 4.0058667e+00   3.3009668e+01
 4.0113333e+00   3.3023565e+01
 4.0168000e+00   3.3094932e+01
 4.0222667e+00   3.3243426e+01
 4.0277333e+00   3.3412580e+01
 4.0332000e+00   3.3607751e+01
 4.0386667e+00   3.3643040e+01
 4.0441333e+00   3.4146100e+01
 4.0496000e+00   3.4282220e+01
 4.0550667e+00   3.4937093e+01
 4.0605333e+00   3.5315211e+01
 4.0660000e+00   3.6201468e+01
 4.0714667e+00   3.7168478e+01
 4.0769333e+00   3.8864505e+01
 4.0824000e+00   4.0790336e+01
 4.0878667e+00   4.4390172e+01
 4.0933333e+00   4.9129675e+01
 4.0988000e+00   5.7243146e+01
 4.1042667e+00   6.7609288e+01
 4.1097333e+00   8.3857859e+01
 4.1152000e+00   1.0168376e+02
 4.1206667e+00   1.2980908e+02
 4.1261333e+00   1.5447728e+02
 4.1316000e+00   1.8920604e+02
 4.1370667e+00   2.1401894e+02
 4.1425333e+00   2.3871366e+02
 4.1480000e+00   2.5201258e+02
 4.1534667e+00   2.5764759e+02
 4.1589333e+00   2.4988470e+02
 4.1644000e+00   2.3774732e+02
 4.1698667e+00   2.1044605e+02
 4.1753333e+00   1.8463852e+02
 4.1808000e+00   1.5254641e+02
 4.1862667e+00   1.2777043e+02
 4.1917333e+00   1.0146418e+02
 4.1972000e+00   8.3404117e+01
 4.2026667e+00   6.8906953e+01
 4.2081333e+00   5.8014153e+01
 4.2136000e+00   5.1020241e+01
 4.2190667e+00   4.6154702e+01
 4.2245333e+00   4.2985591e+01
 4.2300000e+00   4.1100852e+01
 4.2354667e+00   3.9532471e+01
 4.2409333e+00   3.8726027e+01
 4.2464000e+00   3.7837997e+01
 4.2518667e+00   3.7315453e+01
 4.2573333e+00   3.6865779e+01
 4.2628000e+00   3.6335175e+01
 4.2682667e+00   3.6130326e+01
 4.2737333e+00   3.5721042e+01
 4.2792000e+00   3.5602258e+01
 4.2846667e+00   3.5474162e+01
 4.2901333e+00   3.5333939e+01
 4.2956000e+00   3.5181906e+01
 4.3010667e+00   3.5243411e+01
 4.3065333e+00   3.4913442e+01
 4.3120000e+00   3.5010275e+01
 4.3174667e+00   3.4819169e+01
 4.3229333e+00   3.4816368e+01
 4.3284000e+00   3.4614711e+01
 4.3338667e+00   3.4756813e+01
 4.3393333e+00   3.4550353e+01
 4.3448000e+00   3.4557768e+01
 4.3502667e+00   3.4662584e+01
 4.3557333e+00   3.4577767e+01
 4.3612000e+00   3.4699953e+01
 4.3666667e+00   3.4728292e+01
 4.3721333e+00   3.4869708e+01
 4.3776000e+00   3.4776312e+01
 4.3830667e+00   3.5137491e+01
 4.3885333e+00   3.5087070e+01
 4.3940000e+00   3.5440042e+01
 4.3994667e+00   3.5594038e+01
 4.4049333e+00   3.5852342e+01
 4.4104000e+00   3.6148394e+01
 4.4158667e+00   3.7021898e+01
 4.4213333e+00   3.7415049e+01
 4.4268000e+00   3.8454843e+01
 4.4322667e+00   3.9876622e+01
 4.4377333e+00   4.2589416e+01
 4.4432000e+00   4.6823330e+01
 4.4486667e+00   5.3695108e+01
 4.4541333e+00   6.4652193e+01
 4.4596000e+00   8.1753201e+01
 4.4650667e+00   1.0385925e+02
 4.4705333e+00   1.3330670e+02
 4.4760000e+00   1.7702210e+02
 4.4814667e+00   2.1609948e+02
 4.4869333e+00   2.6249172e+02
 4.4924000e+00   3.0143872e+02
 4.4978667e+00   3.3684854e+02
 4.5033333e+00   3.5010965e+02
 4.5088000e+00   3.5280455e+02
 4.5142667e+00   3.4360839e+02
 4.5197333e+00   3.0987283e+02
 4.5252000e+00   2.6698244e+02
 4.5306667e+00   2.2510325e+02
 4.5361333e+00   1.7665505e+02
 4.5416000e+00   1.4418877e+02
 4.5470667e+00   1.1116378e+02
 4.5525333e+00   9.5048584e+01
 4.5580000e+00   7.7401125e+01
 4.5634667e+00   6.9945199e+01
 4.5689333e+00   6.2964405e+01
 4.5744000e+00   6.0216728e+01
 4.5798667e+00   5.8313033e+01
 4.5853333e+00   5.6973916e+01
 4.5908000e+00   5.7178064e+01
 4.5962667e+00   5.7144232e+01
 4.6017333e+00   5.7200614e+01
 4.6072000e+00   5.7947527e+01
 4.6126667e+00   5.8394514e+01
 4.6181333e+00   6.0065261e+01
 4.6236000e+00   6.1067850e+01
 4.6290667e+00   6.6598159e+01
 4.6345333e+00   6.6175278e+01
 4.6400000e+00   7.3311287e+01
 4.6454667e+00   7.6494669e+01
 4.6509333e+00   8.6125182e+01
 4.6564000e+00   9.9520226e+01
 4.6618667e+00   1.2235198e+02
 4.6673333e+00   1.5429365e+02
 4.6728000e+00   2.0118451e+02
 4.6782667e+00   2.6614790e+02
 4.6837333e+00   3.5337558e+02
 4.6892000e+00   4.5703391e+02
 4.6946667e+00   5.7429002e+02
 4.7001333e+00   7.0212423e+02
 4.7056000e+00   8.2457967e+02
 4.7110667e+00   9.3627575e+02
 4.7165333e+00   1.0251937e+03
 4.7220000e+00   1.0619292e+03
 4.7274667e+00   1.0657589e+03
 4.7329333e+00   1.0117458e+03
 4.7384000e+00   9.2710775e+02
 4.7438667e+00   7.9466299e+02
 4.7493333e+00   6.5707738e+02
 4.7548000e+00   5.3042264e+02
 4.7602667e+00   4.0056363e+02
 4.7657333e+00   3.0551719e+02
 4.7712000e+00   2.2411004e+02
 4.7766667e+00   1.6382802e+02
 4.7821333e+00   1.2052504e+02
 4.7876000e+00   9.5615725e+01
 4.7930667e+00   7.5889611e+01
 4.7985333e+00   6.4398347e+01
 4.8040000e+00   5.7970123e+01
 4.8094667e+00   5.2557070e+01
 4.8149333e+00   4.9170600e+01
 4.8204000e+00   4.7091888e+01
 4.8258667e+00   4.5274145e+01
 4.8313333e+00   4.3802643e+01
 4.8368000e+00   4.3137983e+01
 4.8422667e+00   4.2174952e+01
 4.8477333e+00   4.1971485e+01
 4.8532000e+00   4.1540995e+01
 4.8586667e+00   4.1069332e+01
 4.8641333e+00   4.0734698e+01
 4.8696000e+00   3.9844794e+01
 4.8750667e+00   3.9358458e+01
 4.8805333e+00   3.8956135e+01
 4.8860000e+00   3.8736745e+01
 4.8914667e+00   3.8546692e+01
 4.8969333e+00   3.8383457e+01
 4.9024000e+00   3.8131328e+01
 4.9078667e+00   3.7946362e+01
 4.9133333e+00   3.7980262e+01
 4.9188000e+00   3.7846701e+01
 4.9242667e+00   3.8062992e+01
 4.9297333e+00   3.8115100e+01
 4.9352000e+00   3.8143996e+01
 4.9406667e+00   3.8413517e+01
 4.9461333e+00   3.8556466e+01
 4.9516000e+00   3.8766430e+01
 4.9570667e+00   3.9187925e+01
 4.9625333e+00   3.9568136e+01
 4.9680000e+00   3.9488027e+01
 4.9734667e+00   4.0209650e+01
 4.9789333e+00   4.0720363e+01
 4.9844000e+00   4.1018212e+01
 4.9898667e+00   4.2829157e+01
 4.9953333e+00   4.6206432e+01
 5.0008000e+00   5.2996721e+01
 5.0062667e+00   5.3515161e+01
 5.0117333e+00   7.6124160e+01
 5.0172000e+00   7.3748947e+01
 5.0226667e+00   1.1147231e+02
 5.0281333e+00   1.3175181e+02
 5.0336000e+00   1.3982118e+02
 5.0390667e+00   2.0875054e+02
 5.0445333e+00   2.6677825e+02
 5.0500000e+00   2.4707208e+02
 5.0554667e+00   3.9960378e+02
 5.0609333e+00   3.0339701e+02
 5.0664000e+00   4.7159643e+02
 5.0718667e+00   3.5223058e+02
 5.0773333e+00   4.1793398e+02
 5.0828000e+00   3.7929138e+02
 5.0882667e+00   3.9176840e+02
 5.0937333e+00   3.1943584e+02
 5.0992000e+00   2.7374401e+02
 5.1046667e+00   2.5548439e+02
 5.1101333e+00   1.6329176e+02
 5.1156000e+00   1.1830074e+02
 5.1210667e+00   8.2928151e+01
 5.1265333e+00   6.9261570e+01
 5.1320000e+00   5.7189364e+01
 5.1374667e+00   5.1375943e+01
 5.1429333e+00   4.8907477e+01
 5.1484000e+00   4.7832344e+01
 5.1538667e+00   4.8304669e+01
 5.1593333e+00   4.8374719e+01
 5.1648000e+00   4.9203030e+01
 5.1702667e+00   4.8748861e+01
 5.1757333e+00   4.9721057e+01
 5.1812000e+00   4.8577662e+01
 5.1866667e+00   4.8269787e+01
 5.1921333e+00   4.6895697e+01
 5.1976000e+00   4.5680287e+01
 5.2030667e+00   4.4115219e+01
 5.2085333e+00   4.2734922e+01
 5.2140000e+00   4.0755752e+01
 5.2194667e+00   4.0143808e+01
 5.2249333e+00   3.7761419e+01
 5.2304000e+00   3.7117785e+01
 5.2358667e+00   3.5511666e+01
 5.2413333e+00   3.4911128e+01
 5.2468000e+00   3.4154880e+01
 5.2522667e+00   3.3820597e+01
 5.2577333e+00   3.3287649e+01
 5.2632000e+00   3.3155455e+01
 5.2686667e+00   3.2847396e+01
 5.2741333e+00   3.2747984e+01
 5.2796000e+00   3.2584304e+01
 5.2850667e+00   3.2359217e+01
 5.2905333e+00   3.2175636e+01
 5.2960000e+00   3.1907504e+01
 5.3014667e+00   3.1773616e+01
 5.3069333e+00   3.1944359e+01
 5.3124000e+00   3.1518087e+01
 5.3178667e+00   3.1643065e+01
 5.3233333e+00   3.1489078e+01
 5.3288000e+00   3.1415560e+01
 5.3342667e+00   3.1375940e+01
 5.3397333e+00   3.1258470e+01
 5.3452000e+00   3.1190195e+01
 5.3506667e+00   3.1183470e+01
 5.3561333e+00   3.1116497e+01
 5.3616000e+00   3.0999065e+01
 5.3670667e+00   3.0947873e+01
 5.3725333e+00   3.0786541e+01
 5.3780000e+00   3.0714569e+01
 5.3834667e+00   3.0537749e+01
 5.3889333e+00   3.0644925e+01
 5.3944000e+00   3.0382835e+01
 5.3998667e+00   3.0396042e+01
 5.4053333e+00   3.0243372e+01
 5.4108000e+00   3.0237718e+01
 5.4162667e+00   3.0068199e+01
 5.4217333e+00   3.0209954e+01
 5.4272000e+00   2.9978824e+01
 5.4326667e+00   3.0068305e+01
 5.4381333e+00   2.9890798e+01
 5.4436000e+00   3.0021418e+01
 5.4490667e+00   2.9858508e+01
 5.4545333e+00   2.9927028e+01
 5.4600000e+00   2.9812837e+01
 5.4654667e+00   2.9760902e+01
 5.4709333e+00   2.9768211e+01
 5.4764000e+00   2.9695493e+01
 5.4818667e+00   2.9716099e+01
 5.4873333e+00   2.9736813e+01
 5.4928000e+00   2.9644424e+01
 5.4982667e+00   2.9535179e+01
 5.5037333e+00   2.9647234e+01
 5.5092000e+00   2.9558826e+01
 5.5146667e+00   2.9588086e+01
 5.5201333e+00   2.9509629e+01
 5.5256000e+00   2.9460217e+01
 5.5310667e+00   2.9432088e+01
 5.5365333e+00   2.9472363e+01
 5.5420000e+00   2.9405564e+01
 5.5474667e+00   2.9387530e+01
 5.5529333e+00   2.9377130e+01
 5.5584000e+00   2.9386184e+01
 5.5638667e+00   2.9526684e+01
 5.5693333e+00   2.9701950e+01
 5.5748000e+00   2.9567646e+01
 5.5802667e+00   3.0027273e+01
 5.5857333e+00   3.0037272e+01
 5.5912000e+00   2.9566096e+01
 5.5966667e+00   2.9720010e+01
 5.6021333e+00   2.9672333e+01
 5.6076000e+00   2.9733020e+01
 5.6130667e+00   2.9615946e+01
 5.6185333e+00   2.9742238e+01
 5.6240000e+00   2.9629999e+01
 5.6294667e+00   2.9629224e+01
 5.6349333e+00   2.9615469e+01
 5.6404000e+00   2.9645802e+01
 5.6458667e+00   2.9624970e+01
 5.6513333e+00   2.9615210e+01
 5.6568000e+00   2.9700344e+01
 5.6622667e+00   2.9518367e+01
 5.6677333e+00   2.9826517e+01
 5.6732000e+00   2.9652506e+01
 5.6786667e+00   2.9834564e+01
 5.6841333e+00   2.9840300e+01
 5.6896000e+00   2.9984481e+01
 5.6950667e+00   3.0033619e+01
 5.7005333e+00   3.0173242e+01
 5.7060000e+00   3.0201882e+01
 5.7114667e+00   3.0258952e+01
 5.7169333e+00   3.0358709e+01
 5.7224000e+00   3.0472748e+01
 5.7278667e+00   3.0624487e+01
 5.7333333e+00   3.0857492e+01
 5.7388000e+00   3.1032944e+01
 5.7442667e+00   3.1243997e+01
 5.7497333e+00   3.1566775e+01
 5.7552000e+00   3.1754082e+01
 5.7606667e+00   3.2352136e+01
 5.7661333e+00   3.2877730e+01
 5.7716000e+00   3.3409270e+01
 5.7770667e+00   3.5803848e+01
 5.7825333e+00   3.6868342e+01
 5.7880000e+00   4.7120533e+01
 5.7934667e+00   4.7487268e+01
 5.7989333e+00   6.3292812e+01
 5.8044000e+00   5.6269606e+01
 5.8098667e+00   8.2257035e+01
 5.8153333e+00   9.3256744e+01
 5.8208000e+00   1.1169619e+02
 5.8262667e+00   1.1325028e+02
 5.8317333e+00   1.7241273e+02
 5.8372000e+00   1.5848128e+02
 5.8426667e+00   2.1265769e+02
 5.8481333e+00   2.3912717e+02
 5.8536000e+00   2.2237564e+02
 5.8590667e+00   2.1744529e+02
 5.8645333e+00   2.3387465e+02
 5.8700000e+00   1.8598220e+02
 5.8754667e+00   1.8684582e+02
 5.8809333e+00   1.5761223e+02
 5.8864000e+00   1.5114600e+02
 5.8918667e+00   1.1629944e+02
 5.8973333e+00   1.1084874e+02
 5.9028000e+00   6.9522250e+01
 5.9082667e+00   7.4671584e+01
 5.9137333e+00   4.4321511e+01
 5.9192000e+00   4.2684578e+01
 5.9246667e+00   3.5613266e+01
 5.9301333e+00   3.3975253e+01
 5.9356000e+00   3.2984740e+01
 5.9410667e+00   3.2333939e+01
 5.9465333e+00   3.2179208e+01
 5.9520000e+00   3.1394898e+01
 5.9574667e+00   3.1655854e+01
 5.9629333e+00   3.1264237e+01
 5.9684000e+00   3.1204859e+01
 5.9738667e+00   3.1062823e+01
 5.9793333e+00   3.1334146e+01
 5.9848000e+00   3.1215155e+01
 5.9902667e+00   3.1169314e+01
 5.9957333e+00   3.1190463e+01
 6.0012000e+00   3.1098995e+01
 6.0066667e+00   3.1201790e+01
 6.0121333e+00   3.1416232e+01
 6.0176000e+00   3.1322645e+01
 6.0230667e+00   3.1555603e+01
 6.0285333e+00   3.1795208e+01
 6.0340000e+00   3.2024090e+01
 6.0394667e+00   3.2671915e+01
 6.0449333e+00   3.2973392e+01
 6.0504000e+00   3.4080727e+01
 6.0558667e+00   3.5335256e+01
 6.0613333e+00   3.7208577e+01
 6.0668000e+00   4.0218260e+01
 6.0722667e+00   4.4449396e+01
 6.0777333e+00   5.0503130e+01
 6.0832000e+00   5.9300377e+01
 6.0886667e+00   7.1820780e+01
 6.0941333e+00   8.5202041e+01
 6.0996000e+00   1.0494137e+02
 6.1050667e+00   1.2207695e+02
 6.1105333e+00   1.4445161e+02
 6.1160000e+00   1.5970231e+02
 6.1214667e+00   1.7558693e+02
 6.1269333e+00   1.8109920e+02
 6.1324000e+00   1.8531131e+02
 6.1378667e+00   1.7500420e+02
 6.1433333e+00   1.6850213e+02
 6.1488000e+00   1.4736618e+02
 6.1542667e+00   1.3194736e+02
 6.1597333e+00   1.1026890e+02
 6.1652000e+00   9.3747453e+01
 6.1706667e+00   7.7802732e+01
 6.1761333e+00   6.6633957e+01
 6.1816000e+00   5.5075341e+01
 6.1870667e+00   4.9079464e+01
 6.1925333e+00   4.3236925e+01
 6.1980000e+00   3.9600632e+01
 6.2034667e+00   3.6816367e+01
 6.2089333e+00   3.5218809e+01
 6.2144000e+00   3.3795583e+01
 6.2198667e+00   3.2841540e+01
 6.2253333e+00   3.2237899e+01
 6.2308000e+00   3.1517845e+01
 6.2362667e+00   3.1211753e+01
 6.2417333e+00   3.0920279e+01
 6.2472000e+00   3.0679991e+01
 6.2526667e+00   3.0382810e+01
 6.2581333e+00   3.0280190e+01
 6.2636000e+00   3.0050979e+01
 6.2690667e+00   2.9924844e+01
 6.2745333e+00   2.9771437e+01
 6.2800000e+00   2.9758124e+01
 6.2854667e+00   2.9629316e+01
 6.2909333e+00   2.9589724e+01
 6.2964000e+00   2.9485547e+01
 6.3018667e+00   2.9440464e+01
 6.3073333e+00   2.9409097e+01
 6.3128000e+00   2.9267639e+01
 6.3182667e+00   2.9277759e+01
 6.3237333e+00   2.9125552e+01
 6.3292000e+00   2.9080910e+01
 6.3346667e+00   2.9074979e+01
 6.3401333e+00   2.9177763e+01
 6.3456000e+00   2.9027219e+01
 6.3510667e+00   2.9184719e+01
 6.3565333e+00   2.9136747e+01
 6.3620000e+00   2.9169505e+01
 6.3674667e+00   2.9177141e+01
 6.3729333e+00   2.9171081e+01
 6.3784000e+00   2.9211318e+01
 6.3838667e+00   2.9197313e+01
 6.3893333e+00   2.9408715e+01
 6.3948000e+00   2.9226267e+01
 6.4002667e+00   2.9233647e+01
 6.4057333e+00   2.9243446e+01
 6.4112000e+00   2.9209491e+01
 6.4166667e+00   2.9171337e+01
 6.4221333e+00   2.9296777e+01
 6.4276000e+00   2.9139147e+01
 6.4330667e+00   2.9282733e+01
 6.4385333e+00   2.9268750e+01
 6.4440000e+00   2.9372599e+01
 6.4494667e+00   2.9298900e+01
 6.4549333e+00   2.9430863e+01
 6.4604000e+00   2.9318727e+01
 6.4658667e+00   2.9414446e+01
 6.4713333e+00   2.9357965e+01
 6.4768000e+00   2.9401750e+01
 6.4822667e+00   2.9364153e+01
 6.4877333e+00   2.9468671e+01
 6.4932000e+00   2.9345329e+01
 6.4986667e+00   2.9391326e+01
 6.5041333e+00   2.9387607e+01
 6.5096000e+00   2.9331863e+01
 6.5150667e+00   2.9539752e+01
 6.5205333e+00   2.9369888e+01
 6.5260000e+00   2.9479623e+01
 6.5314667e+00   2.9321553e+01
 6.5369333e+00   2.9496065e+01
 6.5424000e+00   2.9271701e+01
 6.5478667e+00   2.9565112e+01
 6.5533333e+00   2.9509476e+01
 6.5588000e+00   3.0081543e+01
 6.5642667e+00   3.0089821e+01
 6.5697333e+00   2.9446347e+01
 6.5752000e+00   2.9357816e+01
 6.5806667e+00   2.9067010e+01
 6.5861333e+00   2.8947256e+01
 6.5916000e+00   2.9088814e+01
 6.5970667e+00   2.8892470e+01
 6.6025333e+00   2.9278420e+01
 6.6080000e+00   2.9184210e+01
 6.6134667e+00   2.8801546e+01
 6.6189333e+00   2.8943188e+01
 6.6244000e+00   2.8778296e+01
 6.6298667e+00   2.8873191e+01
 6.6353333e+00   2.8768742e+01
 6.6408000e+00   2.8853633e+01
 6.6462667e+00   2.8744056e+01
 6.6517333e+00   2.8789939e+01
 6.6572000e+00   2.8744070e+01
 6.6626667e+00   2.8819330e+01
 6.6681333e+00   2.8765574e+01
 6.6736000e+00   2.8763225e+01
 6.6790667e+00   2.8692331e+01
 6.6845333e+00   2.8761661e+01
 6.6900000e+00   2.8701377e+01
 6.6954667e+00   2.8730873e+01
 6.7009333e+00   2.8678379e+01
 6.7064000e+00   2.8673583e+01
 6.7118667e+00   2.8833286e+01
 6.7173333e+00   2.8716953e+01
 6.7228000e+00   2.8850120e+01
 6.7282667e+00   2.8703385e+01
 6.7337333e+00   2.8859838e+01
 6.7392000e+00   2.8797103e+01
 6.7446667e+00   2.8851095e+01
 6.7501333e+00   2.8747893e+01
 6.7556000e+00   2.8846859e+01
 6.7610667e+00   2.8810026e+01
 6.7665333e+00   2.8848613e+01
 6.7720000e+00   2.8871209e+01
 6.7774667e+00   2.8882858e+01
 6.7829333e+00   2.8929556e+01
 6.7884000e+00   2.8932973e+01
 6.7938667e+00   2.8996248e+01
 6.7993333e+00   2.8939360e+01
 6.8048000e+00   2.9038872e+01
 6.8102667e+00   2.8958457e+01
 6.8157333e+00   2.9071975e+01
 6.8212000e+00   2.9083321e+01
 6.8266667e+00   2.9213476e+01
 6.8321333e+00   2.9140735e+01
 6.8376000e+00   2.9207397e+01
 6.8430667e+00   2.9138986e+01
 6.8485333e+00   2.9230956e+01
 6.8540000e+00   2.9246898e+01
 6.8594667e+00   2.9293806e+01
 6.8649333e+00   2.9352033e+01
 6.8704000e+00   2.9306841e+01
 6.8758667e+00   2.9357808e+01
 6.8813333e+00   2.9389381e+01
 6.8868000e+00   2.9333179e+01
 6.8922667e+00   2.9392622e+01
 6.8977333e+00   2.9413257e+01
 6.9032000e+00   2.9437825e+01
 6.9086667e+00   2.9579293e+01
 6.9141333e+00   2.9476296e+01
 6.9196000e+00   2.9695945e+01
 6.9250667e+00   2.9651761e+01
 6.9305333e+00   2.9739758e+01
 6.9360000e+00   2.9701102e+01
 6.9414667e+00   2.9879023e+01
 6.9469333e+00   2.9769188e+01
 6.9524000e+00   2.9910416e+01
 6.9578667e+00   2.9922513e+01
 6.9633333e+00   3.0026732e+01
 6.9688000e+00   3.0061509e+01
 6.9742667e+00   3.0159026e+01
 6.9797333e+00   3.0281808e+01
 6.9852000e+00   3.0277222e+01
 6.9906667e+00   3.0480340e+01
 6.9961333e+00   3.0525581e+01
 7.0016000e+00   3.0634119e+01
 7.0070667e+00   3.0699249e+01
 7.0125333e+00   3.0830689e+01
 7.0180000e+00   3.0776295e+01
 7.0234667e+00   3.1026325e+01
 7.0289333e+00   3.0955759e+01
 7.0344000e+00   3.1256372e+01
 7.0398667e+00   3.1290683e+01
 7.0453333e+00   3.1538780e+01
 7.0508000e+00   3.1634063e+01
 7.0562667e+00   3.1913438e+01
 7.0617333e+00   3.2066928e+01
 7.0672000e+00   3.2428095e+01
 7.0726667e+00   3.2732474e+01
 7.0781333e+00   3.3057254e+01
 7.0836000e+00   3.3564579e+01
 7.0890667e+00   3.4073384e+01
 7.0945333e+00   3.4834867e+01
 7.1000000e+00   3.5635375e+01
 7.1054667e+00   3.6915054e+01
 7.1109333e+00   3.8243242e+01
 7.1164000e+00   4.0311433e+01
 7.1218667e+00   4.2919366e+01
 7.1273333e+00   4.6374912e+01
 7.1328000e+00   5.0822654e+01
 7.1382667e+00   5.6401620e+01
 7.1437333e+00   6.4255169e+01
 7.1492000e+00   7.3166574e+01
 7.1546667e+00   8.4919751e+01
 7.1601333e+00   9.7151130e+01
 7.1656000e+00   1.1241596e+02
 7.1710667e+00   1.2607153e+02
 7.1765333e+00   1.4051156e+02
 7.1820000e+00   1.5193198e+02
 7.1874667e+00   1.6178429e+02
 7.1929333e+00   1.6599925e+02
 7.1984000e+00   1.6786535e+02
 7.2038667e+00   1.6455190e+02
 7.2093333e+00   1.5705340e+02
 7.2148000e+00   1.4663132e+02
 7.2202667e+00   1.3494733e+02
 7.2257333e+00   1.1955089e+02
 7.2312000e+00   1.0634219e+02
 7.2366667e+00   9.1977798e+01
 7.2421333e+00   7.9430054e+01
 7.2476000e+00   6.8854202e+01
 7.2530667e+00   6.0192500e+01
 7.2585333e+00   5.2852413e+01
 7.2640000e+00   4.7981918e+01
 7.2694667e+00   4.3695704e+01
 7.2749333e+00   4.0921185e+01
 7.2804000e+00   3.8733505e+01
 7.2858667e+00   3.7274807e+01
 7.2913333e+00   3.6045671e+01
 7.2968000e+00   3.5241633e+01
 7.3022667e+00   3.4693868e+01
 7.3077333e+00   3.4155476e+01
 7.3132000e+00   3.3875872e+01
 7.3186667e+00   3.3499347e+01
 7.3241333e+00   3.3363330e+01
 7.3296000e+00   3.3081854e+01
 7.3350667e+00   3.2971030e+01
 7.3405333e+00   3.2727435e+01
 7.3460000e+00   3.2740775e+01
 7.3514667e+00   3.2522337e+01
 7.3569333e+00   3.2468823e+01
 7.3624000e+00   3.2221914e+01
 7.3678667e+00   3.2216657e+01
 7.3733333e+00   3.1957688e+01
 7.3788000e+00   3.1870312e+01
 7.3842667e+00   3.1745176e+01
 7.3897333e+00   3.1691479e+01
 7.3952000e+00   3.1475392e+01
 7.4006667e+00   3.1519729e+01
 7.4061333e+00   3.1452381e+01
 7.4116000e+00   3.1229929e+01
 7.4170667e+00   3.1217469e+01
 7.4225333e+00   3.1170828e+01
 7.4280000e+00   3.1103539e+01
 7.4334667e+00   3.0966858e+01
 7.4389333e+00   3.1071444e+01
 7.4444000e+00   3.0896352e+01
 7.4498667e+00   3.0970261e+01
 7.4553333e+00   3.0840932e+01
 7.4608000e+00   3.1002791e+01
 7.4662667e+00   3.0903751e+01
 7.4717333e+00   3.1135471e+01
 7.4772000e+00   3.1591325e+01
 7.4826667e+00   3.1724699e+01
 7.4881333e+00   3.0956258e+01
 7.4936000e+00   3.1223647e+01
 7.4990667e+00   3.1021558e+01
 7.5045333e+00   3.0970681e+01
 7.5100000e+00   3.0974918e+01
 7.5154667e+00   3.0986531e+01
 7.5209333e+00   3.1057177e+01
 7.5264000e+00   3.0878952e+01
 7.5318667e+00   3.1129155e+01
 7.5373333e+00   3.0987865e+01
 7.5428000e+00   3.1109273e+01
 7.5482667e+00   3.0960125e+01
 7.5537333e+00   3.1163689e+01
 7.5592000e+00   3.1041419e+01
 7.5646667e+00   3.1134824e+01
 7.5701333e+00   3.1135537e+01
 7.5756000e+00   3.1211116e+01
 7.5810667e+00   3.1311907e+01
 7.5865333e+00   3.1208605e+01
 7.5920000e+00   3.1333705e+01
 7.5974667e+00   3.1479794e+01
 7.6029333e+00   3.1407366e+01
 7.6084000e+00   3.1347802e+01
 7.6138667e+00   3.1208246e+01
 7.6193333e+00   3.1358129e+01
 7.6248000e+00   3.1205409e+01
 7.6302667e+00   3.1108663e+01
 7.6357333e+00   3.1135257e+01
 7.6412000e+00   3.1164077e+01
 7.6466667e+00   3.1164541e+01
 7.6521333e+00   3.1090282e+01
 7.6576000e+00   3.1173127e+01
 7.6630667e+00   3.1096447e+01
 7.6685333e+00   3.1153829e+01
 7.6740000e+00   3.1175056e+01
 7.6794667e+00   3.1296702e+01
 7.6849333e+00   3.1290325e+01
 7.6904000e+00   3.1394008e+01
 7.6958667e+00   3.1371806e+01
 7.7013333e+00   3.1446840e+01
 7.7068000e+00   3.1448030e+01
 7.7122667e+00   3.1458523e+01
 7.7177333e+00   3.1539958e+01
 7.7232000e+00   3.1426144e+01
 7.7286667e+00   3.1654272e+01
 7.7341333e+00   3.1508054e+01
 7.7396000e+00   3.1801416e+01
 7.7450667e+00   3.1574728e+01
 7.7505333e+00   3.1899679e+01
 7.7560000e+00   3.1735524e+01
 7.7614667e+00   3.2007314e+01
 7.7669333e+00   3.2040319e+01
 7.7724000e+00   3.2175940e+01
 7.7778667e+00   3.2192775e+01
 7.7833333e+00   3.2395553e+01
 7.7888000e+00   3.2406820e+01
 7.7942667e+00   3.2643230e+01
 7.7997333e+00   3.2767095e+01
 7.8052000e+00   3.2965223e+01
 7.8106667e+00   3.3094529e+01
 7.8161333e+00   3.3381164e+01
 7.8216000e+00   3.3668118e+01
 7.8270667e+00   3.4093999e+01
 7.8325333e+00   3.4535815e+01
 7.8380000e+00   3.4967119e+01
 7.8434667e+00   3.5673650e+01
 7.8489333e+00   3.6496046e+01
 7.8544000e+00   3.7744377e+01
 7.8598667e+00   3.9938452e+01
 7.8653333e+00   4.2122052e+01
 7.8708000e+00   4.4359984e+01
 7.8762667e+00   4.8658911e+01
 7.8817333e+00   5.3876941e+01
 7.8872000e+00   6.1854584e+01
 7.8926667e+00   7.3327199e+01
 7.8981333e+00   8.6346356e+01
 7.9036000e+00   1.0389989e+02
 7.9090667e+00   1.2289965e+02
 7.9145333e+00   1.4211122e+02
 7.9200000e+00   1.6185257e+02
 7.9254667e+00   1.7673739e+02
 7.9309333e+00   1.8944588e+02
 7.9364000e+00   1.9296166e+02
 7.9418667e+00   1.9489810e+02
 7.9473333e+00   1.8569765e+02
 7.9528000e+00   1.7561489e+02
 7.9582667e+00   1.5885482e+02
 7.9637333e+00   1.4145255e+02
 7.9692000e+00   1.2266217e+02
 7.9746667e+00   1.0488795e+02
 7.9801333e+00   8.9841812e+01
 7.9856000e+00   7.6099866e+01
 7.9910667e+00   6.5610480e+01
 7.9965333e+00   5.7325671e+01
 8.0020000e+00   5.1373168e+01
 8.0074667e+00   4.6641321e+01
 8.0129333e+00   4.3801131e+01
 8.0184000e+00   4.1323254e+01
 8.0238667e+00   3.9822173e+01
 8.0293333e+00   3.8687520e+01
 8.0348000e+00   3.7683308e+01
 8.0402667e+00   3.7152624e+01
 8.0457333e+00   3.6448682e+01
 8.0512000e+00   3.6334168e+01
 8.0566667e+00   3.5645883e+01
 8.0621333e+00   3.5817426e+01
 8.0676000e+00   3.5246341e+01
 8.0730667e+00   3.5430939e+01
 8.0785333e+00   3.5008101e+01
 8.0840000e+00   3.5166763e+01
 8.0894667e+00   3.4944063e+01
 8.0949333e+00   3.5030488e+01
 8.1004000e+00   3.4904368e+01
 8.1058667e+00   3.4971331e+01
 8.1113333e+00   3.5577613e+01
 8.1168000e+00   3.4929722e+01
 8.1222667e+00   3.9503992e+01
 8.1277333e+00   3.5023225e+01
 8.1332000e+00   3.7150958e+01
 8.1386667e+00   3.5750478e+01
 8.1441333e+00   3.5464672e+01
 8.1496000e+00   3.5343655e+01
 8.1550667e+00   3.5649077e+01
 8.1605333e+00   3.5154442e+01
 8.1660000e+00   3.5884557e+01
 8.1714667e+00   3.5329590e+01
 8.1769333e+00   3.6181520e+01
 8.1824000e+00   3.5853348e+01
 8.1878667e+00   3.6481295e+01
 8.1933333e+00   3.6355365e+01
 8.1988000e+00   3.7013845e+01
 8.2042667e+00   3.6936790e+01
 8.2097333e+00   3.8038279e+01
 8.2152000e+00   3.8304328e+01
 8.2206667e+00   4.0000459e+01
 8.2261333e+00   4.3063852e+01
 8.2316000e+00   4.6539303e+01
 8.2370667e+00   6.2882945e+01
 8.2425333e+00   7.7027304e+01
 8.2480000e+00   1.1793755e+02
 8.2534667e+00   1.1179727e+02
 8.2589333e+00   1.6180258e+02
 8.2644000e+00   1.2316636e+02
 8.2698667e+00   1.5586906e+02
 8.2753333e+00   1.3698805e+02
 8.2808000e+00   1.6606343e+02
 8.2862667e+00   1.4595638e+02
 8.2917333e+00   1.8212569e+02
 8.2972000e+00   1.4669267e+02
 8.3026667e+00   1.9267561e+02
 8.3081333e+00   1.3066358e+02
 8.3136000e+00   1.8277507e+02
 8.3190667e+00   1.3994395e+02
 8.3245333e+00   1.4463017e+02
 8.3300000e+00   9.3306618e+01
 8.3354667e+00   1.1101328e+02
 8.3409333e+00   6.4801840e+01
 8.3464000e+00   8.2933365e+01
 8.3518667e+00   5.2998995e+01
 8.3573333e+00   5.0292160e+01
 8.3628000e+00   4.5938147e+01
 8.3682667e+00   4.3133352e+01
 8.3737333e+00   4.2616169e+01
 8.3792000e+00   4.1181132e+01
 8.3846667e+00   4.1494352e+01
 8.3901333e+00   4.0674891e+01
 8.3956000e+00   4.1580431e+01
 8.4010667e+00   4.1541937e+01
 8.4065333e+00   4.2893893e+01
 8.4120000e+00   4.3831573e+01
 8.4174667e+00   4.6009272e+01
 8.4229333e+00   4.8221558e+01
 8.4284000e+00   5.1919241e+01
 8.4338667e+00   5.6218196e+01
 8.4393333e+00   6.2812257e+01
 8.4448000e+00   7.0392167e+01
 8.4502667e+00   8.0097575e+01
 8.4557333e+00   9.2176149e+01
 8.4612000e+00   1.0527063e+02
 8.4666667e+00   1.2014472e+02
 8.4721333e+00   1.3477414e+02
 8.4776000e+00   1.4879992e+02
 8.4830667e+00   1.6016670e+02
 8.4885333e+00   1.6978719e+02
 8.4940000e+00   1.7442674e+02
 8.4994667e+00   1.7493588e+02
 8.5049333e+00   1.6979404e+02
 8.5104000e+00   1.6231657e+02
 8.5158667e+00   1.5035644e+02
 8.5213333e+00   1.3839517e+02
 8.5268000e+00   1.2352695e+02
 8.5322667e+00   1.1194222e+02
 8.5377333e+00   9.8852293e+01
 8.5432000e+00   9.0423493e+01
 8.5486667e+00   8.2979048e+01
 8.5541333e+00   7.9431133e+01
 8.5596000e+00   7.7423730e+01
 8.5650667e+00   7.8524686e+01
 8.5705333e+00   8.2129551e+01
 8.5760000e+00   8.7084670e+01
 8.5814667e+00   9.4736237e+01
 8.5869333e+00   1.0126013e+02
 8.5924000e+00   1.1079351e+02
 8.5978667e+00   1.1633310e+02
 8.6033333e+00   1.2542056e+02
 8.6088000e+00   1.2799964e+02
 8.6142667e+00   1.3207930e+02
 8.6197333e+00   1.3049809e+02
 8.6252000e+00   1.2855314e+02
 8.6306667e+00   1.2189259e+02
 8.6361333e+00   1.1497419e+02
 8.6416000e+00   1.0516221e+02
 8.6470667e+00   9.6053651e+01
 8.6525333e+00   8.5572626e+01
 8.6580000e+00   7.6552077e+01
 8.6634667e+00   6.8459822e+01
 8.6689333e+00   6.1251477e+01
 8.6744000e+00   5.4749372e+01
 8.6798667e+00   5.0175766e+01
 8.6853333e+00   4.6664105e+01
 8.6908000e+00   4.3364430e+01
 8.6962667e+00   4.1650615e+01
 8.7017333e+00   3.9575416e+01
 8.7072000e+00   3.8655147e+01
 8.7126667e+00   3.7289726e+01
 8.7181333e+00   3.6888035e+01
 8.7236000e+00   3.5836385e+01
 8.7290667e+00   3.5748346e+01
 8.7345333e+00   3.5012646e+01
 8.7400000e+00   3.4942445e+01
 8.7454667e+00   3.4368717e+01
 8.7509333e+00   3.4471073e+01
 8.7564000e+00   3.3979235e+01
 8.7618667e+00   3.4197254e+01
 8.7673333e+00   3.3738632e+01
 8.7728000e+00   3.4047673e+01
 8.7782667e+00   3.3496289e+01
 8.7837333e+00   3.3415383e+01
 8.7892000e+00   3.3177631e+01
 8.7946667e+00   3.3066789e+01
 8.8001333e+00   3.2990606e+01
 8.8056000e+00   3.2707909e+01
 8.8110667e+00   3.2787462e+01
 8.8165333e+00   3.2529509e+01
 8.8220000e+00   3.2595163e+01
 8.8274667e+00   3.2317938e+01
 8.8329333e+00   3.2394351e+01
 8.8384000e+00   3.2127016e+01
 8.8438667e+00   3.2294220e+01
 8.8493333e+00   3.1956916e+01
 8.8548000e+00   3.2144170e+01
 8.8602667e+00   3.1705552e+01
 8.8657333e+00   3.1966651e+01
 8.8712000e+00   3.1629717e+01
 8.8766667e+00   3.1845649e+01
 8.8821333e+00   3.1646963e+01
 8.8876000e+00   3.1838232e+01
 8.8930667e+00   3.1602110e+01
 8.8985333e+00   3.1815507e+01
 8.9040000e+00   3.1672819e+01
 8.9094667e+00   3.1805237e+01
 8.9149333e+00   3.1876330e+01
 8.9204000e+00   3.1987165e+01
 8.9258667e+00   3.2245713e+01
 8.9313333e+00   3.2374944e+01
 8.9368000e+00   3.2714385e+01
 8.9422667e+00   3.3010203e+01
 8.9477333e+00   3.3563207e+01
 8.9532000e+00   3.3937273e+01
 8.9586667e+00   3.4927399e+01
 8.9641333e+00   3.5586278e+01
 8.9696000e+00   3.7168105e+01
 8.9750667e+00   3.8345959e+01
 8.9805333e+00   4.0802398e+01
 8.9860000e+00   4.2487770e+01
 8.9914667e+00   4.5760127e+01
 8.9969333e+00   4.7733587e+01
 9.0024000e+00   5.1054590e+01
 9.0078667e+00   5.2912173e+01
 9.0133333e+00   5.4855478e+01
 9.0188000e+00   5.5565975e+01
 9.0242667e+00   5.5670524e+01
 9.0297333e+00   5.5070888e+01
 9.0352000e+00   5.3046611e+01
 9.0406667e+00   5.1225009e+01
 9.0461333e+00   4.7893370e+01
 9.0516000e+00   4.5431452e+01
 9.0570667e+00   4.1974532e+01
 9.0625333e+00   3.9849197e+01
 9.0680000e+00   3.7233246e+01
 9.0734667e+00   3.5782782e+01
 9.0789333e+00   3.3679626e+01
 9.0844000e+00   3.3002452e+01
 9.0898667e+00   3.1665204e+01
 9.0953333e+00   3.1161340e+01
 9.1008000e+00   3.0480871e+01
 9.1062667e+00   3.0332823e+01
 9.1117333e+00   2.9804710e+01
 9.1172000e+00   2.9741588e+01
 9.1226667e+00   2.9401052e+01
 9.1281333e+00   2.9357695e+01
 9.1336000e+00   2.9108365e+01
 9.1390667e+00   2.9032093e+01
 9.1445333e+00   2.8928795e+01
 9.1500000e+00   2.8743912e+01
 9.1554667e+00   2.8798607e+01
 9.1609333e+00   2.8809205e+01
 9.1664000e+00   2.8608697e+01
 9.1718667e+00   2.8520040e+01
 9.1773333e+00   2.8577559e+01
 9.1828000e+00   2.8388776e+01
 9.1882667e+00   2.8479534e+01
 9.1937333e+00   2.8237763e+01
 9.1992000e+00   2.8455100e+01
 9.2046667e+00   2.8130613e+01
 9.2101333e+00   2.8252570e+01
 9.2156000e+00   2.7983936e+01
 9.2210667e+00   2.8117640e+01
 9.2265333e+00   2.7884829e+01
 9.2320000e+00   2.8069380e+01
 9.2374667e+00   2.7888519e+01
 9.2429333e+00   2.7882893e+01
 9.2484000e+00   2.7786008e+01
 9.2538667e+00   2.7798275e+01
 9.2593333e+00   2.7627864e+01
 9.2648000e+00   2.7705260e+01
 9.2702667e+00   2.7566673e+01
 9.2757333e+00   2.7560984e+01
 9.2812000e+00   2.7501168e+01
 9.2866667e+00   2.7477211e+01
 9.2921333e+00   2.7498344e+01
 9.2976000e+00   2.7421814e+01
 9.3030667e+00   2.7406379e+01
 9.3085333e+00   2.7424225e+01
 9.3140000e+00   2.7439812e+01
 9.3194667e+00   2.7257867e+01
 9.3249333e+00   2.7470784e+01
 9.3304000e+00   2.7271744e+01
 9.3358667e+00   2.7486981e+01
 9.3413333e+00   2.7402579e+01
 9.3468000e+00   2.7736867e+01
 9.3522667e+00   2.7620429e+01
 9.3577333e+00   2.7908662e+01
 9.3632000e+00   2.7905888e+01
 9.3686667e+00   2.8224872e+01
 9.3741333e+00   2.8384166e+01
 9.3796000e+00   2.8824384e+01
 9.3850667e+00   2.9287825e+01
 9.3905333e+00   2.9908995e+01
 9.3960000e+00   3.0715734e+01
 9.4014667e+00   3.1751340e+01
 9.4069333e+00   3.2949822e+01
 9.4124000e+00   3.4418635e+01
 9.4178667e+00   3.6235984e+01
 9.4233333e+00   3.8133523e+01
 9.4288000e+00   4.0335081e+01
 9.4342667e+00   4.2359256e+01
 9.4397333e+00   4.4521617e+01
 9.4452000e+00   4.6133657e+01
 9.4506667e+00   4.7839365e+01
 9.4561333e+00   4.8330812e+01
 9.4616000e+00   4.8902884e+01
 9.4670667e+00   4.8293717e+01
 9.4725333e+00   4.7515909e+01
 9.4780000e+00   4.5760043e+01
 9.4834667e+00   4.3882296e+01
 9.4889333e+00   4.1587260e+01
 9.4944000e+00   3.9331380e+01
 9.4998667e+00   3.6951029e+01
 9.5053333e+00   3.4942613e+01
 9.5108000e+00   3.3228178e+01
 9.5162667e+00   3.1465686e+01
 9.5217333e+00   3.0368891e+01
 9.5272000e+00   2.9324058e+01
 9.5326667e+00   2.8632350e+01
 9.5381333e+00   2.8021440e+01
 9.5436000e+00   2.7712899e+01
 9.5490667e+00   2.7384514e+01
 9.5545333e+00   2.7198027e+01
 9.5600000e+00   2.7088033e+01
 9.5654667e+00   2.6979050e+01
 9.5709333e+00   2.6823357e+01
 9.5764000e+00   2.6824886e+01
 9.5818667e+00   2.6786857e+01
 9.5873333e+00   2.6921621e+01
 9.5928000e+00   2.6906313e+01
 9.5982667e+00   2.7039640e+01
 9.6037333e+00   2.7011368e+01
 9.6092000e+00   2.7074102e+01
 9.6146667e+00   2.7034208e+01
 9.6201333e+00   2.7213082e+01
 9.6256000e+00   2.7310158e+01
 9.6310667e+00   2.7645538e+01
 9.6365333e+00   2.7873951e+01
 9.6420000e+00   2.8570223e+01
 9.6474667e+00   2.9377422e+01
 9.6529333e+00   3.1529288e+01
 9.6584000e+00   3.5116328e+01
 9.6638667e+00   4.4133902e+01
 9.6693333e+00   6.0396072e+01
 9.6748000e+00   6.9647628e+01
 9.6802667e+00   1.0974724e+02
 9.6857333e+00   1.1264803e+02
 9.6912000e+00   1.3983674e+02
 9.6966667e+00   1.1890900e+02
 9.7021333e+00   1.6515712e+02
 9.7076000e+00   1.3528471e+02
 9.7130667e+00   1.5451364e+02
 9.7185333e+00   1.6420737e+02
 9.7240000e+00   1.5135848e+02
 9.7294667e+00   1.3445359e+02
 9.7349333e+00   1.5388547e+02
 9.7404000e+00   1.3559409e+02
 9.7458667e+00   1.0686252e+02
 9.7513333e+00   1.0950276e+02
 9.7568000e+00   8.7534541e+01
 9.7622667e+00   9.8076529e+01
 9.7677333e+00   6.9432818e+01
 9.7732000e+00   6.7985151e+01
 9.7786667e+00   5.8841796e+01
 9.7841333e+00   3.9487910e+01
 9.7896000e+00   3.6572198e+01
 9.7950667e+00   2.9866504e+01
 9.8005333e+00   2.8655154e+01
 9.8060000e+00   2.7644725e+01
 9.8114667e+00   2.7208766e+01
 9.8169333e+00   2.6921692e+01
 9.8224000e+00   2.6735312e+01
 9.8278667e+00   2.6544726e+01
 9.8333333e+00   2.6567024e+01
 9.8388000e+00   2.6550851e+01
 9.8442667e+00   2.6508734e+01
 9.8497333e+00   2.6645406e+01
 9.8552000e+00   2.6881896e+01
 9.8606667e+00   2.7151180e+01
 9.8661333e+00   2.7401027e+01
 9.8716000e+00   2.7867299e+01
 9.8770667e+00   2.8653883e+01
 9.8825333e+00   2.9503829e+01
 9.8880000e+00   3.0796355e+01
 9.8934667e+00   3.2194316e+01
 9.8989333e+00   3.3925971e+01
 9.9044000e+00   3.5781640e+01
 9.9098667e+00   3.7977139e+01
 9.9153333e+00   4.0092481e+01
 9.9208000e+00   4.2050562e+01
 9.9262667e+00   4.3438784e+01
 9.9317333e+00   4.4656094e+01
 9.9372000e+00   4.5042264e+01
 9.9426667e+00   4.4604128e+01
 9.9481333e+00   4.3982022e+01
 9.9536000e+00   4.2532738e+01
 9.9590667e+00   4.0731232e+01
 9.9645333e+00   3.8712878e+01
 9.9700000e+00   3.6772973e+01
 9.9754667e+00   3.4670023e+01
 9.9809333e+00   3.2820129e+01
 9.9864000e+00   3.1248795e+01
 9.9918667e+00   2.9870143e+01
 9.9973333e+00   2.8782062e+01
 1.0002800e+01   2.7983285e+01
 1.0008267e+01   2.7212831e+01
 1.0013733e+01   2.6889517e+01
 1.0019200e+01   2.6381222e+01
 1.0024667e+01   2.6262828e+01
 1.0030133e+01   2.5866908e+01
 1.0035600e+01   2.5941158e+01
 1.0041067e+01   2.5632506e+01
 1.0046533e+01   2.5740072e+01
 1.0052000e+01   2.5493592e+01
 1.0057467e+01   2.5730532e+01
 1.0062933e+01   2.5496194e+01
 1.0068400e+01   2.5790381e+01
 1.0073867e+01   2.5608980e+01
 1.0079333e+01   2.6517785e+01
 1.0084800e+01   2.5894083e+01
 1.0090267e+01   3.0818811e+01
 1.0095733e+01   2.6995222e+01
 1.0101200e+01   3.0592423e+01
 1.0106667e+01   4.8254458e+01
 1.0112133e+01   3.1566935e+01
 1.0117600e+01   6.0464265e+01
 1.0123067e+01   4.0907442e+01
 1.0128533e+01   5.8551390e+01
 1.0134000e+01   6.0514822e+01
 1.0139467e+01   9.0844830e+01
 1.0144933e+01   7.2018085e+01
 1.0150400e+01   9.8285270e+01
 1.0155867e+01   6.2701605e+01
 1.0161333e+01   7.4681677e+01
 1.0166800e+01   6.2265970e+01
 1.0172267e+01   7.1994236e+01
 1.0177733e+01   5.7206604e+01
 1.0183200e+01   6.1200076e+01
 1.0188667e+01   4.9256577e+01
 1.0194133e+01   5.1720720e+01
 1.0199600e+01   3.9828256e+01
 1.0205067e+01   4.1265268e+01
 1.0210533e+01   3.1648896e+01
 1.0216000e+01   3.4527403e+01
 1.0221467e+01   2.8116228e+01
 1.0226933e+01   2.6457278e+01
 1.0232400e+01   2.5793025e+01
 1.0237867e+01   2.5408245e+01
 1.0243333e+01   2.5278807e+01
 1.0248800e+01   2.5141550e+01
 1.0254267e+01   2.5062261e+01
 1.0259733e+01   2.4942013e+01
 1.0265200e+01   2.4969866e+01
 1.0270667e+01   2.4788360e+01
 1.0276133e+01   2.4969763e+01
 1.0281600e+01   2.4800798e+01
 1.0287067e+01   2.4937989e+01
 1.0292533e+01   2.4807226e+01
 1.0298000e+01   2.4858063e+01
 1.0303467e+01   2.4815871e+01
 1.0308933e+01   2.4936206e+01
 1.0314400e+01   2.4858560e+01
 1.0319867e+01   2.4930729e+01
 1.0325333e+01   2.4888350e+01
 1.0330800e+01   2.5019325e+01
 1.0336267e+01   2.4916068e+01
 1.0341733e+01   2.5081945e+01
 1.0347200e+01   2.5091315e+01
 1.0352667e+01   2.5030521e+01
 1.0358133e+01   2.5102244e+01
 1.0363600e+01   2.5063114e+01
 1.0369067e+01   2.5059347e+01
 1.0374533e+01   2.5080945e+01
 1.0380000e+01   2.5070541e+01
 1.0385467e+01   2.5058458e+01
 1.0390933e+01   2.4995123e+01
 1.0396400e+01   2.4961113e+01
 1.0401867e+01   2.4892577e+01
 1.0407333e+01   2.4819242e+01
 1.0412800e+01   2.4888473e+01
 1.0418267e+01   2.4735874e+01
 1.0423733e+01   2.4700669e+01
 1.0429200e+01   2.4625665e+01
 1.0434667e+01   2.4631405e+01
 1.0440133e+01   2.4579489e+01
 1.0445600e+01   2.4570191e+01
 1.0451067e+01   2.4525725e+01
 1.0456533e+01   2.4450176e+01
 1.0462000e+01   2.4476349e+01
 1.0467467e+01   2.4409648e+01
 1.0472933e+01   2.4472726e+01
 1.0478400e+01   2.4509056e+01
 1.0483867e+01   2.4443215e+01
 1.0489333e+01   2.4500260e+01
 1.0494800e+01   2.4530063e+01
 1.0500267e+01   2.4415578e+01
 1.0505733e+01   2.4746624e+01
 1.0511200e+01   2.4484278e+01
 1.0516667e+01   2.5537531e+01
 1.0522133e+01   2.4699063e+01
 1.0527600e+01   2.4705222e+01
 1.0533067e+01   2.4602049e+01
 1.0538533e+01   2.4599456e+01
 1.0544000e+01   2.4618348e+01
 1.0549467e+01   2.4646348e+01
 1.0554933e+01   2.4705288e+01
 1.0560400e+01   2.4644655e+01
 1.0565867e+01   2.4657212e+01
 1.0571333e+01   2.4729005e+01
 1.0576800e+01   2.4761643e+01
 1.0582267e+01   2.4795784e+01
 1.0587733e+01   2.4932941e+01
 1.0593200e+01   2.4938449e+01
 1.0598667e+01   2.5055552e+01
 1.0604133e+01   2.5179846e+01
 1.0609600e+01   2.5355270e+01
 1.0615067e+01   2.5473661e+01
 1.0620533e+01   2.5701051e+01
 1.0626000e+01   2.5947577e+01
 1.0631467e+01   2.6235576e+01
 1.0636933e+01   2.6731848e+01
 1.0642400e+01   2.7226559e+01
 1.0647867e+01   2.7918846e+01
 1.0653333e+01   2.8861680e+01
 1.0658800e+01   3.0095870e+01
 1.0664267e+01   3.1509501e+01
 1.0669733e+01   3.3656454e+01
 1.0675200e+01   3.5752306e+01
 1.0680667e+01   3.8815927e+01
 1.0686133e+01   4.2004995e+01
 1.0691600e+01   4.5960172e+01
 1.0697067e+01   4.9466926e+01
 1.0702533e+01   5.3904965e+01
 1.0708000e+01   5.7320644e+01
 1.0713467e+01   6.0961743e+01
 1.0718933e+01   6.3623967e+01
 1.0724400e+01   6.5563659e+01
 1.0729867e+01   6.5448713e+01
 1.0735333e+01   6.5433862e+01
 1.0740800e+01   6.3180917e+01
 1.0746267e+01   6.1237590e+01
 1.0751733e+01   5.7199027e+01
 1.0757200e+01   5.3909227e+01
 1.0762667e+01   4.9752367e+01
 1.0768133e+01   4.5830466e+01
 1.0773600e+01   4.1942534e+01
 1.0779067e+01   3.9066347e+01
 1.0784533e+01   3.6015447e+01
 1.0790000e+01   3.3826009e+01
 1.0795467e+01   3.1913454e+01
 1.0800933e+01   3.0408685e+01
 1.0806400e+01   2.9311675e+01
 1.0811867e+01   2.8381283e+01
 1.0817333e+01   2.7624361e+01
 1.0822800e+01   2.7105095e+01
 1.0828267e+01   2.6756579e+01
 1.0833733e+01   2.6423670e+01
 1.0839200e+01   2.6169341e+01
 1.0844667e+01   2.6026663e+01
 1.0850133e+01   2.5904750e+01
 1.0855600e+01   2.5710871e+01
 1.0861067e+01   2.5748977e+01
 1.0866533e+01   2.5668564e+01
 1.0872000e+01   2.5654301e+01
 1.0877467e+01   2.5595125e+01
 1.0882933e+01   2.5607898e+01
 1.0888400e+01   2.5581742e+01
 1.0893867e+01   2.5576061e+01
 1.0899333e+01   2.5654095e+01
 1.0904800e+01   2.5629214e+01
 1.0910267e+01   2.5807524e+01
 1.0915733e+01   2.5890743e+01
 1.0921200e+01   2.6089682e+01
 1.0926667e+01   2.6342959e+01
 1.0932133e+01   2.6596999e+01
 1.0937600e+01   2.6906782e+01
 1.0943067e+01   2.7210669e+01
 1.0948533e+01   2.7766786e+01
 1.0954000e+01   2.8198478e+01
 1.0959467e+01   2.8804522e+01
 1.0964933e+01   2.9496638e+01
 1.0970400e+01   3.0177164e+01
 1.0975867e+01   3.1072712e+01
 1.0981333e+01   3.1824540e+01
 1.0986800e+01   3.2629835e+01
 1.0992267e+01   3.3244163e+01
 1.0997733e+01   3.3887502e+01
 1.1003200e+01   3.4358978e+01
 1.1008667e+01   3.4528854e+01
 1.1014133e+01   3.4556425e+01
 1.1019600e+01   3.4503328e+01
 1.1025067e+01   3.3988844e+01
 1.1030533e+01   3.3587289e+01
 1.1036000e+01   3.2901617e+01
 1.1041467e+01   3.2280386e+01
 1.1046933e+01   3.1427974e+01
 1.1052400e+01   3.0819907e+01
 1.1057867e+01   3.0017158e+01
 1.1063333e+01   2.9471307e+01
 1.1068800e+01   2.8951159e+01
 1.1074267e+01   2.8646126e+01
 1.1079733e+01   2.8157393e+01
 1.1085200e+01   2.7909387e+01
 1.1090667e+01   2.7727260e+01
 1.1096133e+01   2.7642848e+01
 1.1101600e+01   2.7554458e+01
 1.1107067e+01   2.7620445e+01
 1.1112533e+01   2.7701893e+01
 1.1118000e+01   2.8000604e+01
 1.1123467e+01   2.8207138e+01
 1.1128933e+01   2.8672766e+01
 1.1134400e+01   2.9075409e+01
 1.1139867e+01   2.9863574e+01
 1.1145333e+01   3.0520115e+01
 1.1150800e+01   3.1601410e+01
 1.1156267e+01   3.2791444e+01
 1.1161733e+01   3.4275151e+01
 1.1167200e+01   3.6135627e+01
 1.1172667e+01   3.8277736e+01
 1.1178133e+01   4.0886012e+01
 1.1183600e+01   4.3787376e+01
 1.1189067e+01   4.7223392e+01
 1.1194533e+01   5.0789685e+01
