PWDR ff_004448_sum_norm_dc_0.tif Azm= 352.fxye Bank 1
2-Theta Angle (Degrees)
Intensity
       1500
 3.0000000e+00   4.7003501e+01
 3.0054667e+00   4.6736276e+01
 3.0109333e+00   4.6475880e+01
 3.0164000e+00   4.6407628e+01
 3.0218667e+00   4.6090823e+01
 3.0273333e+00   4.5913981e+01
 3.0328000e+00   4.5649090e+01
 3.0382667e+00   4.5431238e+01
 3.0437333e+00   4.5306947e+01
 3.0492000e+00   4.5063425e+01
 3.0546667e+00   4.5286146e+01
 3.0601333e+00   4.4689601e+01
 3.0656000e+00   4.4609756e+01
 3.0710667e+00   4.4049380e+01
 3.0765333e+00   4.4169809e+01
 3.0820000e+00   4.3985742e+01
 3.0874667e+00   4.3798511e+01
 3.0929333e+00   4.3712259e+01
 3.0984000e+00   4.3586752e+01
 3.1038667e+00   4.3816636e+01
 3.1093333e+00   4.3206094e+01
 3.1148000e+00   4.3353776e+01
 3.1202667e+00   4.2968095e+01
 3.1257333e+00   4.3121800e+01
 3.1312000e+00   4.2420745e+01
 3.1366667e+00   4.2774264e+01
 3.1421333e+00   4.2188102e+01
 3.1476000e+00   4.2317554e+01
 3.1530667e+00   4.2112010e+01
 3.1585333e+00   4.1975332e+01
 3.1640000e+00   4.2090128e+01
 3.1694667e+00   4.1930327e+01
 3.1749333e+00   4.1855007e+01
 3.1804000e+00   4.1897056e+01
 3.1858667e+00   4.1607420e+01
 3.1913333e+00   4.1502205e+01
 3.1968000e+00   4.1372522e+01
 3.2022667e+00   4.1039791e+01
 3.2077333e+00   4.1089159e+01
 3.2132000e+00   4.0621539e+01
 3.2186667e+00   4.0772805e+01
 3.2241333e+00   4.0516710e+01
 3.2296000e+00   4.0473853e+01
 3.2350667e+00   4.0272012e+01
 3.2405333e+00   4.0391945e+01
 3.2460000e+00   4.0072937e+01
 3.2514667e+00   4.0118981e+01
 3.2569333e+00   4.0092391e+01
 3.2624000e+00   3.9883362e+01
 3.2678667e+00   4.0062465e+01
 3.2733333e+00   3.9776390e+01
 3.2788000e+00   3.9870077e+01
 3.2842667e+00   3.9913459e+01
 3.2897333e+00   3.9744270e+01
 3.2952000e+00   3.9621433e+01
 3.3006667e+00   3.9559759e+01
 3.3061333e+00   3.9383107e+01
 3.3116000e+00   3.9331115e+01
 3.3170667e+00   3.9264320e+01
 3.3225333e+00   3.9242905e+01
 3.3280000e+00   3.9292411e+01
 3.3334667e+00   3.9157327e+01
 3.3389333e+00   3.9229635e+01
 3.3444000e+00   3.9148875e+01
 3.3498667e+00   3.8798106e+01
 3.3553333e+00   3.8862248e+01
 3.3608000e+00   3.8575652e+01
 3.3662667e+00   3.8479706e+01
 3.3717333e+00   3.8712363e+01
 3.3772000e+00   3.8299360e+01
 3.3826667e+00   3.9608133e+01
 3.3881333e+00   3.8472073e+01
 3.3936000e+00   3.8477907e+01
 3.3990667e+00   3.8702621e+01
 3.4045333e+00   3.8504600e+01
 3.4100000e+00   3.8440243e+01
 3.4154667e+00   3.8394834e+01
 3.4209333e+00   3.8235945e+01
 3.4264000e+00   3.8367002e+01
 3.4318667e+00   3.8082168e+01
 3.4373333e+00   3.8376386e+01
 3.4428000e+00   3.8005855e+01
 3.4482667e+00   3.8200389e+01
 3.4537333e+00   3.8136129e+01
 3.4592000e+00   3.8163623e+01
 3.4646667e+00   3.7962386e+01
 3.4701333e+00   3.8350384e+01
 3.4756000e+00   3.8125800e+01
 3.4810667e+00   3.8211776e+01
 3.4865333e+00   3.8248362e+01
 3.4920000e+00   3.8299221e+01
 3.4974667e+00   3.8410652e+01
 3.5029333e+00   3.8252895e+01
 3.5084000e+00   3.8476714e+01
 3.5138667e+00   3.8374354e+01
 3.5193333e+00   3.8360020e+01
 3.5248000e+00   3.8329960e+01
 3.5302667e+00   3.8546085e+01
 3.5357333e+00   3.8068335e+01
 3.5412000e+00   3.8374903e+01
 3.5466667e+00   3.8199764e+01
 3.5521333e+00   3.8410356e+01
 3.5576000e+00   3.8213418e+01
 3.5630667e+00   3.8472037e+01
 3.5685333e+00   3.8471078e+01
 3.5740000e+00   3.8497488e+01
 3.5794667e+00   3.8511012e+01
 3.5849333e+00   3.8571647e+01
 3.5904000e+00   3.8494126e+01
 3.5958667e+00   3.8364625e+01
 3.6013333e+00   3.8522812e+01
 3.6068000e+00   3.8597735e+01
 3.6122667e+00   3.8620785e+01
 3.6177333e+00   3.8660838e+01
 3.6232000e+00   3.8781188e+01
 3.6286667e+00   3.8603477e+01
 3.6341333e+00   3.8891729e+01
 3.6396000e+00   3.8719950e+01
 3.6450667e+00   3.8770215e+01
 3.6505333e+00   3.8764830e+01
 3.6560000e+00   3.8987259e+01
 3.6614667e+00   3.8734123e+01
 3.6669333e+00   3.9266484e+01
 3.6724000e+00   3.9039591e+01
 3.6778667e+00   3.9210054e+01
 3.6833333e+00   3.9229210e+01
 3.6888000e+00   3.9269056e+01
 3.6942667e+00   3.9192499e+01
 3.6997333e+00   3.9307341e+01
 3.7052000e+00   3.9247136e+01
 3.7106667e+00   3.9432462e+01
 3.7161333e+00   3.9286280e+01
 3.7216000e+00   3.9647040e+01
 3.7270667e+00   3.9460344e+01
 3.7325333e+00   3.9543781e+01
 3.7380000e+00   3.9527389e+01
 3.7434667e+00   3.9442885e+01
 3.7489333e+00   3.9522777e+01
 3.7544000e+00   3.9596180e+01
 3.7598667e+00   3.9499478e+01
 3.7653333e+00   3.9586392e+01
 3.7708000e+00   3.9696272e+01
 3.7762667e+00   3.9534777e+01
 3.7817333e+00   3.9702211e+01
 3.7872000e+00   3.9675401e+01
 3.7926667e+00   3.9941838e+01
 3.7981333e+00   4.0118982e+01
 3.8036000e+00   4.0307583e+01
 3.8090667e+00   4.0219298e+01
 3.8145333e+00   4.0435881e+01
 3.8200000e+00   4.0405827e+01
 3.8254667e+00   4.0599067e+01
 3.8309333e+00   4.0706527e+01
 3.8364000e+00   4.0608561e+01
 3.8418667e+00   4.0907667e+01
 3.8473333e+00   4.1086192e+01
 3.8528000e+00   4.1185409e+01
 3.8582667e+00   4.1230732e+01
 3.8637333e+00   4.1587925e+01
 3.8692000e+00   4.1314003e+01
 3.8746667e+00   4.1628925e+01
 3.8801333e+00   4.1456709e+01
 3.8856000e+00   4.1787363e+01
 3.8910667e+00   4.1921230e+01
 3.8965333e+00   4.2198073e+01
 3.9020000e+00   4.2422375e+01
 3.9074667e+00   4.2966566e+01
 3.9129333e+00   4.2477505e+01
 3.9184000e+00   4.2680402e+01
 3.9238667e+00   4.2474847e+01
 3.9293333e+00   4.2530380e+01
 3.9348000e+00   4.2472129e+01
 3.9402667e+00   4.2450329e+01
 3.9457333e+00   4.2538520e+01
 3.9512000e+00   4.2585225e+01
 3.9566667e+00   4.2747743e+01
 3.9621333e+00   4.2688776e+01
 3.9676000e+00   4.3089156e+01
 3.9730667e+00   4.2737084e+01
 3.9785333e+00   4.3329807e+01
 3.9840000e+00   4.3013486e+01
 3.9894667e+00   4.3447299e+01
 3.9949333e+00   4.3370594e+01
 4.0004000e+00   4.3664618e+01
 4.0058667e+00   4.3617461e+01
 4.0113333e+00   4.3834792e+01
 4.0168000e+00   4.4151534e+01
 4.0222667e+00   4.4100825e+01
 4.0277333e+00   4.4314652e+01
 4.0332000e+00   4.4838113e+01
 4.0386667e+00   4.4706827e+01
 4.0441333e+00   4.5832105e+01
 4.0496000e+00   4.5044853e+01
 4.0550667e+00   4.5396172e+01
 4.0605333e+00   4.5507359e+01
 4.0660000e+00   4.5758030e+01
 4.0714667e+00   4.7036257e+01
 4.0769333e+00   4.6836195e+01
 4.0824000e+00   4.6658885e+01
 4.0878667e+00   4.7164783e+01
 4.0933333e+00   4.7052517e+01
 4.0988000e+00   4.7184788e+01
 4.1042667e+00   4.7572878e+01
 4.1097333e+00   4.7541558e+01
 4.1152000e+00   4.7969075e+01
 4.1206667e+00   4.7747813e+01
 4.1261333e+00   4.7741069e+01
 4.1316000e+00   4.8089879e+01
 4.1370667e+00   4.7787062e+01
 4.1425333e+00   4.8149393e+01
 4.1480000e+00   4.7906041e+01
 4.1534667e+00   4.8302971e+01
 4.1589333e+00   4.7834502e+01
 4.1644000e+00   4.8361297e+01
 4.1698667e+00   4.7890881e+01
 4.1753333e+00   4.8320823e+01
 4.1808000e+00   4.8225201e+01
 4.1862667e+00   4.8426090e+01
 4.1917333e+00   4.8472589e+01
 4.1972000e+00   4.8752196e+01
 4.2026667e+00   4.8651271e+01
 4.2081333e+00   4.8950824e+01
 4.2136000e+00   4.8985854e+01
 4.2190667e+00   4.9269767e+01
 4.2245333e+00   4.9185619e+01
 4.2300000e+00   4.9385898e+01
 4.2354667e+00   4.9410019e+01
 4.2409333e+00   4.9492213e+01
 4.2464000e+00   4.9598395e+01
 4.2518667e+00   4.9685425e+01
 4.2573333e+00   5.0300952e+01
 4.2628000e+00   5.0109504e+01
 4.2682667e+00   5.0633575e+01
 4.2737333e+00   5.0385831e+01
 4.2792000e+00   5.0831548e+01
 4.2846667e+00   5.0750329e+01
 4.2901333e+00   5.1092558e+01
 4.2956000e+00   5.1073958e+01
 4.3010667e+00   5.1784916e+01
 4.3065333e+00   5.1734919e+01
 4.3120000e+00   5.2052328e+01
 4.3174667e+00   5.2392401e+01
 4.3229333e+00   5.2679405e+01
 4.3284000e+00   5.2770911e+01
 4.3338667e+00   5.2994817e+01
 4.3393333e+00   5.3307966e+01
 4.3448000e+00   5.3667103e+01
 4.3502667e+00   5.3920021e+01
 4.3557333e+00   5.4308258e+01
 4.3612000e+00   5.4956016e+01
 4.3666667e+00   5.5148576e+01
 4.3721333e+00   5.5833427e+01
 4.3776000e+00   5.6018732e+01
 4.3830667e+00   5.6815735e+01
 4.3885333e+00   5.6813394e+01
 4.3940000e+00   5.8113904e+01
 4.3994667e+00   5.8375641e+01
 4.4049333e+00   5.9044466e+01
 4.4104000e+00   5.9543700e+01
 4.4158667e+00   6.0217658e+01
 4.4213333e+00   6.1096919e+01
 4.4268000e+00   6.1393997e+01
 4.4322667e+00   6.2487594e+01
 4.4377333e+00   6.3315410e+01
 4.4432000e+00   6.4814028e+01
 4.4486667e+00   6.6106964e+01
 4.4541333e+00   6.9211140e+01
 4.4596000e+00   7.3750371e+01
 4.4650667e+00   8.3570935e+01
 4.4705333e+00   1.0118572e+02
 4.4760000e+00   1.2430977e+02
 4.4814667e+00   1.5598142e+02
 4.4869333e+00   2.1055288e+02
 4.4924000e+00   2.8590029e+02
 4.4978667e+00   3.6660389e+02
 4.5033333e+00   4.8796218e+02
 4.5088000e+00   5.4577045e+02
 4.5142667e+00   6.5739742e+02
 4.5197333e+00   5.8533052e+02
 4.5252000e+00   4.7386711e+02
 4.5306667e+00   3.8744984e+02
 4.5361333e+00   3.2159900e+02
 4.5416000e+00   2.4114682e+02
 4.5470667e+00   1.8393972e+02
 4.5525333e+00   1.8414472e+02
 4.5580000e+00   1.1634959e+02
 4.5634667e+00   1.0644670e+02
 4.5689333e+00   8.1742670e+01
 4.5744000e+00   7.4466702e+01
 4.5798667e+00   6.9337245e+01
 4.5853333e+00   6.7291459e+01
 4.5908000e+00   6.6001110e+01
 4.5962667e+00   6.4645399e+01
 4.6017333e+00   6.4084690e+01
 4.6072000e+00   6.3915761e+01
 4.6126667e+00   6.3188945e+01
 4.6181333e+00   6.3555028e+01
 4.6236000e+00   6.3328075e+01
 4.6290667e+00   6.3357199e+01
 4.6345333e+00   6.3914275e+01
 4.6400000e+00   6.4180572e+01
 4.6454667e+00   6.4828581e+01
 4.6509333e+00   6.5277074e+01
 4.6564000e+00   6.5582222e+01
 4.6618667e+00   6.5518568e+01
 4.6673333e+00   6.5003862e+01
 4.6728000e+00   6.4953804e+01
 4.6782667e+00   6.4443324e+01
 4.6837333e+00   6.4007079e+01
 4.6892000e+00   6.3669386e+01
 4.6946667e+00   6.3304951e+01
 4.7001333e+00   6.2798486e+01
 4.7056000e+00   6.2710576e+01
 4.7110667e+00   6.2213295e+01
 4.7165333e+00   6.2405683e+01
 4.7220000e+00   6.1950995e+01
 4.7274667e+00   6.2330016e+01
 4.7329333e+00   6.1663803e+01
 4.7384000e+00   6.1492613e+01
 4.7438667e+00   6.1170711e+01
 4.7493333e+00   6.1172787e+01
 4.7548000e+00   6.0958186e+01
 4.7602667e+00   6.0338682e+01
 4.7657333e+00   6.1260173e+01
 4.7712000e+00   6.1082378e+01
 4.7766667e+00   6.0976506e+01
 4.7821333e+00   6.0314570e+01
 4.7876000e+00   6.0582773e+01
 4.7930667e+00   5.9839517e+01
 4.7985333e+00   6.0409174e+01
 4.8040000e+00   6.0237305e+01
 4.8094667e+00   6.0513830e+01
 4.8149333e+00   6.0553210e+01
 4.8204000e+00   6.1100470e+01
 4.8258667e+00   6.1032188e+01
 4.8313333e+00   6.1502365e+01
 4.8368000e+00   6.1911995e+01
 4.8422667e+00   6.1778250e+01
 4.8477333e+00   6.2764708e+01
 4.8532000e+00   6.2883264e+01
 4.8586667e+00   6.3621666e+01
 4.8641333e+00   6.3403429e+01
 4.8696000e+00   6.5721871e+01
 4.8750667e+00   6.4012452e+01
 4.8805333e+00   6.7136313e+01
 4.8860000e+00   6.5893150e+01
 4.8914667e+00   6.8944629e+01
 4.8969333e+00   6.9217678e+01
 4.9024000e+00   7.3459649e+01
 4.9078667e+00   7.5556506e+01
 4.9133333e+00   8.5215204e+01
 4.9188000e+00   9.5249902e+01
 4.9242667e+00   1.2511804e+02
 4.9297333e+00   1.4602113e+02
 4.9352000e+00   1.6068981e+02
 4.9406667e+00   2.9010595e+02
 4.9461333e+00   2.1595797e+02
 4.9516000e+00   4.4045723e+02
 4.9570667e+00   3.1745240e+02
 4.9625333e+00   5.1934226e+02
 4.9680000e+00   4.2300972e+02
 4.9734667e+00   4.4222728e+02
 4.9789333e+00   4.8181636e+02
 4.9844000e+00   4.1180999e+02
 4.9898667e+00   4.9587664e+02
 4.9953333e+00   3.6799030e+02
 5.0008000e+00   2.8316782e+02
 5.0062667e+00   2.4638202e+02
 5.0117333e+00   1.7354438e+02
 5.0172000e+00   1.5852082e+02
 5.0226667e+00   1.1000154e+02
 5.0281333e+00   9.6531667e+01
 5.0336000e+00   8.3764153e+01
 5.0390667e+00   7.5687232e+01
 5.0445333e+00   7.3350112e+01
 5.0500000e+00   6.9938714e+01
 5.0554667e+00   6.9088349e+01
 5.0609333e+00   6.7274698e+01
 5.0664000e+00   6.6379028e+01
 5.0718667e+00   6.5809851e+01
 5.0773333e+00   6.4458740e+01
 5.0828000e+00   6.3815122e+01
 5.0882667e+00   6.2967105e+01
 5.0937333e+00   6.2527002e+01
 5.0992000e+00   6.1314201e+01
 5.1046667e+00   6.0839514e+01
 5.1101333e+00   6.0414603e+01
 5.1156000e+00   5.9645230e+01
 5.1210667e+00   5.8997466e+01
 5.1265333e+00   5.8922575e+01
 5.1320000e+00   5.7844775e+01
 5.1374667e+00   5.7949390e+01
 5.1429333e+00   5.7208851e+01
 5.1484000e+00   5.6789807e+01
 5.1538667e+00   5.6654222e+01
 5.1593333e+00   5.6291344e+01
 5.1648000e+00   5.6376931e+01
 5.1702667e+00   5.5569385e+01
 5.1757333e+00   5.5812548e+01
 5.1812000e+00   5.5061050e+01
 5.1866667e+00   5.4899596e+01
 5.1921333e+00   5.4546340e+01
 5.1976000e+00   5.4288338e+01
 5.2030667e+00   5.3886770e+01
 5.2085333e+00   5.4017692e+01
 5.2140000e+00   5.3249696e+01
 5.2194667e+00   5.3703983e+01
 5.2249333e+00   5.3133398e+01
 5.2304000e+00   5.3161643e+01
 5.2358667e+00   5.2623817e+01
 5.2413333e+00   5.2884364e+01
 5.2468000e+00   5.2364968e+01
 5.2522667e+00   5.2148908e+01
 5.2577333e+00   5.2151214e+01
 5.2632000e+00   5.1823953e+01
 5.2686667e+00   5.1819899e+01
 5.2741333e+00   5.1480575e+01
 5.2796000e+00   5.1487750e+01
 5.2850667e+00   5.1195478e+01
 5.2905333e+00   5.1232999e+01
 5.2960000e+00   5.0873327e+01
 5.3014667e+00   5.0900000e+01
 5.3069333e+00   5.0600280e+01
 5.3124000e+00   5.0400694e+01
 5.3178667e+00   5.0209441e+01
 5.3233333e+00   5.0066712e+01
 5.3288000e+00   4.9827234e+01
 5.3342667e+00   4.9769016e+01
 5.3397333e+00   4.9843339e+01
 5.3452000e+00   4.9429569e+01
 5.3506667e+00   4.9664807e+01
 5.3561333e+00   4.9640564e+01
 5.3616000e+00   4.9304342e+01
 5.3670667e+00   4.9167683e+01
 5.3725333e+00   4.9204414e+01
 5.3780000e+00   4.9050629e+01
 5.3834667e+00   4.8702193e+01
 5.3889333e+00   4.8825752e+01
 5.3944000e+00   4.8740512e+01
 5.3998667e+00   4.8376266e+01
 5.4053333e+00   4.8659754e+01
 5.4108000e+00   4.8326015e+01
 5.4162667e+00   4.8336464e+01
 5.4217333e+00   4.8240216e+01
 5.4272000e+00   4.8102586e+01
 5.4326667e+00   4.8102634e+01
 5.4381333e+00   4.7947151e+01
 5.4436000e+00   4.7991119e+01
 5.4490667e+00   4.7818635e+01
 5.4545333e+00   4.7887630e+01
 5.4600000e+00   4.7575778e+01
 5.4654667e+00   4.7709578e+01
 5.4709333e+00   4.7552556e+01
 5.4764000e+00   4.7331414e+01
 5.4818667e+00   4.7435042e+01
 5.4873333e+00   4.7158975e+01
 5.4928000e+00   4.7127490e+01
 5.4982667e+00   4.7049698e+01
 5.5037333e+00   4.7031553e+01
 5.5092000e+00   4.6975235e+01
 5.5146667e+00   4.7123211e+01
 5.5201333e+00   4.6948879e+01
 5.5256000e+00   4.6966501e+01
 5.5310667e+00   4.6595737e+01
 5.5365333e+00   4.6894995e+01
 5.5420000e+00   4.6569621e+01
 5.5474667e+00   4.6791776e+01
 5.5529333e+00   4.6739257e+01
 5.5584000e+00   4.6623919e+01
 5.5638667e+00   4.6679235e+01
 5.5693333e+00   4.6970045e+01
 5.5748000e+00   4.7234577e+01
 5.5802667e+00   4.6882854e+01
 5.5857333e+00   4.6851262e+01
 5.5912000e+00   4.6886268e+01
 5.5966667e+00   4.6779782e+01
 5.6021333e+00   4.6841127e+01
 5.6076000e+00   4.6746347e+01
 5.6130667e+00   4.6776797e+01
 5.6185333e+00   4.7002310e+01
 5.6240000e+00   4.6864041e+01
 5.6294667e+00   4.7131828e+01
 5.6349333e+00   4.7011760e+01
 5.6404000e+00   4.7189543e+01
 5.6458667e+00   4.7125052e+01
 5.6513333e+00   4.7672979e+01
 5.6568000e+00   4.7686886e+01
 5.6622667e+00   4.8140231e+01
 5.6677333e+00   4.9999596e+01
 5.6732000e+00   5.0287949e+01
 5.6786667e+00   6.2817253e+01
 5.6841333e+00   6.9562461e+01
 5.6896000e+00   7.0854343e+01
 5.6950667e+00   8.4771737e+01
 5.7005333e+00   1.2172329e+02
 5.7060000e+00   1.1310554e+02
 5.7114667e+00   1.4473169e+02
 5.7169333e+00   1.4188296e+02
 5.7224000e+00   1.6180042e+02
 5.7278667e+00   1.3698458e+02
 5.7333333e+00   1.9350244e+02
 5.7388000e+00   1.3824577e+02
 5.7442667e+00   1.9470866e+02
 5.7497333e+00   1.6111909e+02
 5.7552000e+00   1.5928051e+02
 5.7606667e+00   1.5406097e+02
 5.7661333e+00   1.5088565e+02
 5.7716000e+00   1.1526120e+02
 5.7770667e+00   1.1972258e+02
 5.7825333e+00   7.7871674e+01
 5.7880000e+00   8.7377714e+01
 5.7934667e+00   6.5054490e+01
 5.7989333e+00   5.9651378e+01
 5.8044000e+00   5.2077368e+01
 5.8098667e+00   4.9936759e+01
 5.8153333e+00   4.7619886e+01
 5.8208000e+00   4.6884267e+01
 5.8262667e+00   4.6150158e+01
 5.8317333e+00   4.5820810e+01
 5.8372000e+00   4.5554465e+01
 5.8426667e+00   4.5220123e+01
 5.8481333e+00   4.4974339e+01
 5.8536000e+00   4.4981105e+01
 5.8590667e+00   4.4521217e+01
 5.8645333e+00   4.4422823e+01
 5.8700000e+00   4.4141575e+01
 5.8754667e+00   4.3835889e+01
 5.8809333e+00   4.3485107e+01
 5.8864000e+00   4.3622051e+01
 5.8918667e+00   4.3098175e+01
 5.8973333e+00   4.2939767e+01
 5.9028000e+00   4.2949969e+01
 5.9082667e+00   4.2787246e+01
 5.9137333e+00   4.2553899e+01
 5.9192000e+00   4.2743354e+01
 5.9246667e+00   4.2454073e+01
 5.9301333e+00   4.2436538e+01
 5.9356000e+00   4.2192384e+01
 5.9410667e+00   4.2272425e+01
 5.9465333e+00   4.2081132e+01
 5.9520000e+00   4.1922954e+01
 5.9574667e+00   4.1797205e+01
 5.9629333e+00   4.2054031e+01
 5.9684000e+00   4.1663812e+01
 5.9738667e+00   4.1957018e+01
 5.9793333e+00   4.1790556e+01
 5.9848000e+00   4.1727605e+01
 5.9902667e+00   4.1841141e+01
 5.9957333e+00   4.1562917e+01
 6.0012000e+00   4.1552451e+01
 6.0066667e+00   4.1628275e+01
 6.0121333e+00   4.1516543e+01
 6.0176000e+00   4.1424371e+01
 6.0230667e+00   4.1696979e+01
 6.0285333e+00   4.1501444e+01
 6.0340000e+00   4.1543079e+01
 6.0394667e+00   4.1518479e+01
 6.0449333e+00   4.1735914e+01
 6.0504000e+00   4.1550263e+01
 6.0558667e+00   4.1508377e+01
 6.0613333e+00   4.1460520e+01
 6.0668000e+00   4.1689198e+01
 6.0722667e+00   4.1288213e+01
 6.0777333e+00   4.1609555e+01
 6.0832000e+00   4.1385951e+01
 6.0886667e+00   4.1579075e+01
 6.0941333e+00   4.1404732e+01
 6.0996000e+00   4.1385198e+01
 6.1050667e+00   4.1319682e+01
 6.1105333e+00   4.1208277e+01
 6.1160000e+00   4.1426122e+01
 6.1214667e+00   4.1119125e+01
 6.1269333e+00   4.1272368e+01
 6.1324000e+00   4.1275393e+01
 6.1378667e+00   4.1166915e+01
 6.1433333e+00   4.1171230e+01
 6.1488000e+00   4.1246228e+01
 6.1542667e+00   4.0964901e+01
 6.1597333e+00   4.0851897e+01
 6.1652000e+00   4.0663986e+01
 6.1706667e+00   4.0831053e+01
 6.1761333e+00   4.0540111e+01
 6.1816000e+00   4.0739260e+01
 6.1870667e+00   4.0546225e+01
 6.1925333e+00   4.0711680e+01
 6.1980000e+00   4.0511941e+01
 6.2034667e+00   4.0693286e+01
 6.2089333e+00   4.0706151e+01
 6.2144000e+00   4.0485891e+01
 6.2198667e+00   4.0749020e+01
 6.2253333e+00   4.0649138e+01
 6.2308000e+00   4.0568912e+01
 6.2362667e+00   4.0973487e+01
 6.2417333e+00   4.0630310e+01
 6.2472000e+00   4.0624087e+01
 6.2526667e+00   4.0996567e+01
 6.2581333e+00   4.0715107e+01
 6.2636000e+00   4.0761154e+01
 6.2690667e+00   4.0872009e+01
 6.2745333e+00   4.0791649e+01
 6.2800000e+00   4.0759790e+01
 6.2854667e+00   4.0973333e+01
 6.2909333e+00   4.0768271e+01
 6.2964000e+00   4.0957389e+01
 6.3018667e+00   4.1147225e+01
 6.3073333e+00   4.1304415e+01
 6.3128000e+00   4.1420775e+01
 6.3182667e+00   4.1722553e+01
 6.3237333e+00   4.1858607e+01
 6.3292000e+00   4.2201048e+01
 6.3346667e+00   4.2888631e+01
 6.3401333e+00   4.4197417e+01
 6.3456000e+00   4.7142346e+01
 6.3510667e+00   5.3685641e+01
 6.3565333e+00   6.3489780e+01
 6.3620000e+00   7.9723812e+01
 6.3674667e+00   9.6928132e+01
 6.3729333e+00   1.2026434e+02
 6.3784000e+00   1.1025249e+02
 6.3838667e+00   1.2029717e+02
 6.3893333e+00   9.8371950e+01
 6.3948000e+00   9.1217518e+01
 6.4002667e+00   7.7116587e+01
 6.4057333e+00   7.0805962e+01
 6.4112000e+00   6.6072634e+01
 6.4166667e+00   6.7630090e+01
 6.4221333e+00   5.8618173e+01
 6.4276000e+00   5.3944863e+01
 6.4330667e+00   4.8751955e+01
 6.4385333e+00   4.4472330e+01
 6.4440000e+00   4.2767887e+01
 6.4494667e+00   4.1814779e+01
 6.4549333e+00   4.1355236e+01
 6.4604000e+00   4.1196873e+01
 6.4658667e+00   4.0789267e+01
 6.4713333e+00   4.0829496e+01
 6.4768000e+00   4.0570285e+01
 6.4822667e+00   4.0502373e+01
 6.4877333e+00   4.0399505e+01
 6.4932000e+00   4.0355148e+01
 6.4986667e+00   4.0213320e+01
 6.5041333e+00   4.0223313e+01
 6.5096000e+00   3.9995365e+01
 6.5150667e+00   4.0084221e+01
 6.5205333e+00   3.9949090e+01
 6.5260000e+00   4.0039272e+01
 6.5314667e+00   4.0041375e+01
 6.5369333e+00   4.0210395e+01
 6.5424000e+00   4.0117934e+01
 6.5478667e+00   3.9751474e+01
 6.5533333e+00   3.9835884e+01
 6.5588000e+00   3.9631522e+01
 6.5642667e+00   3.9514942e+01
 6.5697333e+00   3.9490032e+01
 6.5752000e+00   3.9523666e+01
 6.5806667e+00   3.9275257e+01
 6.5861333e+00   3.9569789e+01
 6.5916000e+00   3.9409579e+01
 6.5970667e+00   3.9510312e+01
 6.6025333e+00   3.9410304e+01
 6.6080000e+00   3.9826947e+01
 6.6134667e+00   3.9249036e+01
 6.6189333e+00   3.9540213e+01
 6.6244000e+00   3.9449067e+01
 6.6298667e+00   3.9270330e+01
 6.6353333e+00   3.9235072e+01
 6.6408000e+00   3.9504424e+01
 6.6462667e+00   3.9144467e+01
 6.6517333e+00   3.9442052e+01
 6.6572000e+00   3.9520230e+01
 6.6626667e+00   3.9208361e+01
 6.6681333e+00   3.9550727e+01
 6.6736000e+00   3.9411132e+01
 6.6790667e+00   3.9502388e+01
 6.6845333e+00   3.9367268e+01
 6.6900000e+00   3.9686099e+01
 6.6954667e+00   3.9396654e+01
 6.7009333e+00   3.9584766e+01
 6.7064000e+00   3.9417001e+01
 6.7118667e+00   3.9863928e+01
 6.7173333e+00   3.9375345e+01
 6.7228000e+00   3.9574379e+01
 6.7282667e+00   3.9438198e+01
 6.7337333e+00   3.9653916e+01
 6.7392000e+00   3.9265258e+01
 6.7446667e+00   3.9638775e+01
 6.7501333e+00   3.9632719e+01
 6.7556000e+00   3.9601529e+01
 6.7610667e+00   3.9800696e+01
 6.7665333e+00   3.9741506e+01
 6.7720000e+00   3.9722522e+01
 6.7774667e+00   3.9839954e+01
 6.7829333e+00   3.9755142e+01
 6.7884000e+00   3.9699291e+01
 6.7938667e+00   4.0016860e+01
 6.7993333e+00   3.9636404e+01
 6.8048000e+00   3.9862499e+01
 6.8102667e+00   3.9925875e+01
 6.8157333e+00   3.9993945e+01
 6.8212000e+00   4.0026542e+01
 6.8266667e+00   4.0125604e+01
 6.8321333e+00   4.0218370e+01
 6.8376000e+00   4.0190225e+01
 6.8430667e+00   4.0000739e+01
 6.8485333e+00   4.0200468e+01
 6.8540000e+00   4.0036885e+01
 6.8594667e+00   4.0169026e+01
 6.8649333e+00   3.9946554e+01
 6.8704000e+00   4.0201497e+01
 6.8758667e+00   4.0286633e+01
 6.8813333e+00   4.0222449e+01
 6.8868000e+00   4.0493438e+01
 6.8922667e+00   4.0359878e+01
 6.8977333e+00   4.0396585e+01
 6.9032000e+00   4.0772329e+01
 6.9086667e+00   4.0377275e+01
 6.9141333e+00   4.0625023e+01
 6.9196000e+00   4.0695081e+01
 6.9250667e+00   4.0498962e+01
 6.9305333e+00   4.0704949e+01
 6.9360000e+00   4.0384707e+01
 6.9414667e+00   4.0844764e+01
 6.9469333e+00   4.0759993e+01
 6.9524000e+00   4.0758609e+01
 6.9578667e+00   4.0854288e+01
 6.9633333e+00   4.0861132e+01
 6.9688000e+00   4.1062445e+01
 6.9742667e+00   4.1087557e+01
 6.9797333e+00   4.1112605e+01
 6.9852000e+00   4.1245497e+01
 6.9906667e+00   4.1349838e+01
 6.9961333e+00   4.1344176e+01
 7.0016000e+00   4.1412173e+01
 7.0070667e+00   4.1519535e+01
 7.0125333e+00   4.1513605e+01
 7.0180000e+00   4.1420687e+01
 7.0234667e+00   4.1695317e+01
 7.0289333e+00   4.1744316e+01
 7.0344000e+00   4.1382973e+01
 7.0398667e+00   4.1796542e+01
 7.0453333e+00   4.1812840e+01
 7.0508000e+00   4.1889299e+01
 7.0562667e+00   4.1764147e+01
 7.0617333e+00   4.2106662e+01
 7.0672000e+00   4.2047821e+01
 7.0726667e+00   4.2115690e+01
 7.0781333e+00   4.1956975e+01
 7.0836000e+00   4.2413158e+01
 7.0890667e+00   4.2361394e+01
 7.0945333e+00   4.2542890e+01
 7.1000000e+00   4.2716861e+01
 7.1054667e+00   4.2867828e+01
 7.1109333e+00   4.2857580e+01
 7.1164000e+00   4.3072611e+01
 7.1218667e+00   4.3026212e+01
 7.1273333e+00   4.2945237e+01
 7.1328000e+00   4.3267361e+01
 7.1382667e+00   4.3050305e+01
 7.1437333e+00   4.3190548e+01
 7.1492000e+00   4.3131122e+01
 7.1546667e+00   4.3306971e+01
 7.1601333e+00   4.3091020e+01
 7.1656000e+00   4.3407786e+01
 7.1710667e+00   4.3055843e+01
 7.1765333e+00   4.3338386e+01
 7.1820000e+00   4.3348811e+01
 7.1874667e+00   4.3621439e+01
 7.1929333e+00   4.3407966e+01
 7.1984000e+00   4.3840654e+01
 7.2038667e+00   4.3572159e+01
 7.2093333e+00   4.3615973e+01
 7.2148000e+00   4.3651035e+01
 7.2202667e+00   4.3599080e+01
 7.2257333e+00   4.3645604e+01
 7.2312000e+00   4.3494404e+01
 7.2366667e+00   4.3710416e+01
 7.2421333e+00   4.3541516e+01
 7.2476000e+00   4.3656147e+01
 7.2530667e+00   4.3512187e+01
 7.2585333e+00   4.3932511e+01
 7.2640000e+00   4.3579025e+01
 7.2694667e+00   4.3779054e+01
 7.2749333e+00   4.3927107e+01
 7.2804000e+00   4.3984171e+01
 7.2858667e+00   4.3913170e+01
 7.2913333e+00   4.4265633e+01
 7.2968000e+00   4.3850236e+01
 7.3022667e+00   4.4364682e+01
 7.3077333e+00   4.3801819e+01
 7.3132000e+00   4.4246781e+01
 7.3186667e+00   4.4155754e+01
 7.3241333e+00   4.4359738e+01
 7.3296000e+00   4.4305078e+01
 7.3350667e+00   4.4543137e+01
 7.3405333e+00   4.4511852e+01
 7.3460000e+00   4.4809156e+01
 7.3514667e+00   4.4723909e+01
 7.3569333e+00   4.4617032e+01
 7.3624000e+00   4.5064605e+01
 7.3678667e+00   4.4833522e+01
 7.3733333e+00   4.4901889e+01
 7.3788000e+00   4.5163766e+01
 7.3842667e+00   4.5348017e+01
 7.3897333e+00   4.5049217e+01
 7.3952000e+00   4.5224055e+01
 7.4006667e+00   4.5458939e+01
 7.4061333e+00   4.5486664e+01
 7.4116000e+00   4.5271928e+01
 7.4170667e+00   4.5703590e+01
 7.4225333e+00   4.5410968e+01
 7.4280000e+00   4.5762683e+01
 7.4334667e+00   4.5718748e+01
 7.4389333e+00   4.5922217e+01
 7.4444000e+00   4.5943748e+01
 7.4498667e+00   4.6110743e+01
 7.4553333e+00   4.5967404e+01
 7.4608000e+00   4.6159589e+01
 7.4662667e+00   4.6121790e+01
 7.4717333e+00   4.6202939e+01
 7.4772000e+00   4.6341482e+01
 7.4826667e+00   4.6294349e+01
 7.4881333e+00   4.6712125e+01
 7.4936000e+00   4.6579337e+01
 7.4990667e+00   4.6715251e+01
 7.5045333e+00   4.6953797e+01
 7.5100000e+00   4.7127399e+01
 7.5154667e+00   4.7090237e+01
 7.5209333e+00   4.7268963e+01
 7.5264000e+00   4.7233101e+01
 7.5318667e+00   4.7220757e+01
 7.5373333e+00   4.7398866e+01
 7.5428000e+00   4.7242292e+01
 7.5482667e+00   4.7419970e+01
 7.5537333e+00   4.7707910e+01
 7.5592000e+00   4.7761744e+01
 7.5646667e+00   4.7801954e+01
 7.5701333e+00   4.8155720e+01
 7.5756000e+00   4.8087946e+01
 7.5810667e+00   4.8428367e+01
 7.5865333e+00   4.8322466e+01
 7.5920000e+00   4.8343924e+01
 7.5974667e+00   4.8548648e+01
 7.6029333e+00   4.8523209e+01
 7.6084000e+00   4.8593664e+01
 7.6138667e+00   4.8832858e+01
 7.6193333e+00   4.9068580e+01
 7.6248000e+00   4.9079804e+01
 7.6302667e+00   4.9057126e+01
 7.6357333e+00   4.9451496e+01
 7.6412000e+00   4.9289021e+01
 7.6466667e+00   4.9557646e+01
 7.6521333e+00   4.9793419e+01
 7.6576000e+00   4.9806490e+01
 7.6630667e+00   5.0054002e+01
 7.6685333e+00   5.0018193e+01
 7.6740000e+00   5.0425383e+01
 7.6794667e+00   5.0555607e+01
 7.6849333e+00   5.0568037e+01
 7.6904000e+00   5.0681996e+01
 7.6958667e+00   5.0959973e+01
 7.7013333e+00   5.1054895e+01
 7.7068000e+00   5.1521420e+01
 7.7122667e+00   5.1260512e+01
 7.7177333e+00   5.2032046e+01
 7.7232000e+00   5.2033890e+01
 7.7286667e+00   5.2255492e+01
 7.7341333e+00   5.2511234e+01
 7.7396000e+00   5.2933530e+01
 7.7450667e+00   5.2947376e+01
 7.7505333e+00   5.3580300e+01
 7.7560000e+00   5.3771538e+01
 7.7614667e+00   5.4079514e+01
 7.7669333e+00   5.4860370e+01
 7.7724000e+00   5.6425014e+01
 7.7778667e+00   5.7945372e+01
 7.7833333e+00   6.1852655e+01
 7.7888000e+00   6.7830517e+01
 7.7942667e+00   7.9116057e+01
 7.7997333e+00   9.1696900e+01
 7.8052000e+00   1.0740000e+02
 7.8106667e+00   1.1298767e+02
 7.8161333e+00   1.2610368e+02
 7.8216000e+00   1.3869619e+02
 7.8270667e+00   1.2987049e+02
 7.8325333e+00   1.3823662e+02
 7.8380000e+00   1.3801982e+02
 7.8434667e+00   1.2655078e+02
 7.8489333e+00   1.1237428e+02
 7.8544000e+00   1.1141613e+02
 7.8598667e+00   1.0077201e+02
 7.8653333e+00   9.0713777e+01
 7.8708000e+00   8.1277392e+01
 7.8762667e+00   7.5140519e+01
 7.8817333e+00   6.9335805e+01
 7.8872000e+00   6.3009521e+01
 7.8926667e+00   5.9485846e+01
 7.8981333e+00   5.7537178e+01
 7.9036000e+00   5.6753336e+01
 7.9090667e+00   5.6476008e+01
 7.9145333e+00   5.5905950e+01
 7.9200000e+00   5.5389377e+01
 7.9254667e+00   5.5392167e+01
 7.9309333e+00   5.5160465e+01
 7.9364000e+00   5.5136984e+01
 7.9418667e+00   5.4631390e+01
 7.9473333e+00   5.4853467e+01
 7.9528000e+00   5.4443805e+01
 7.9582667e+00   5.4722300e+01
 7.9637333e+00   5.4194481e+01
 7.9692000e+00   5.4379286e+01
 7.9746667e+00   5.4208831e+01
 7.9801333e+00   5.4216613e+01
 7.9856000e+00   5.3910575e+01
 7.9910667e+00   5.4202657e+01
 7.9965333e+00   5.3868133e+01
 8.0020000e+00   5.4054682e+01
 8.0074667e+00   5.3923441e+01
 8.0129333e+00   5.4369538e+01
 8.0184000e+00   5.4272714e+01
 8.0238667e+00   5.4359775e+01
 8.0293333e+00   5.4690705e+01
 8.0348000e+00   5.4393834e+01
 8.0402667e+00   5.5165483e+01
 8.0457333e+00   5.5496232e+01
 8.0512000e+00   5.6005614e+01
 8.0566667e+00   5.9916637e+01
 8.0621333e+00   5.9424100e+01
 8.0676000e+00   7.5015730e+01
 8.0730667e+00   6.6988249e+01
 8.0785333e+00   8.4002460e+01
 8.0840000e+00   7.1555008e+01
 8.0894667e+00   9.2110279e+01
 8.0949333e+00   7.7911902e+01
 8.1004000e+00   1.2107467e+02
 8.1058667e+00   1.1256408e+02
 8.1113333e+00   1.4693664e+02
 8.1168000e+00   1.3725802e+02
 8.1222667e+00   1.3897447e+02
 8.1277333e+00   1.2388133e+02
 8.1332000e+00   1.3129153e+02
 8.1386667e+00   1.0988657e+02
 8.1441333e+00   1.1256122e+02
 8.1496000e+00   1.0292787e+02
 8.1550667e+00   1.0096380e+02
 8.1605333e+00   9.2195492e+01
 8.1660000e+00   8.5823446e+01
 8.1714667e+00   9.3037484e+01
 8.1769333e+00   8.2551384e+01
 8.1824000e+00   7.8283061e+01
 8.1878667e+00   6.9291318e+01
 8.1933333e+00   6.2592149e+01
 8.1988000e+00   5.7900883e+01
 8.2042667e+00   5.6214244e+01
 8.2097333e+00   5.5436179e+01
 8.2152000e+00   5.4735261e+01
 8.2206667e+00   5.4584231e+01
 8.2261333e+00   5.4340372e+01
 8.2316000e+00   5.3929280e+01
 8.2370667e+00   5.4140800e+01
 8.2425333e+00   5.3630636e+01
 8.2480000e+00   5.3742213e+01
 8.2534667e+00   5.3258500e+01
 8.2589333e+00   5.3624879e+01
 8.2644000e+00   5.3076167e+01
 8.2698667e+00   5.3308241e+01
 8.2753333e+00   5.2491321e+01
 8.2808000e+00   5.2903909e+01
 8.2862667e+00   5.2480661e+01
 8.2917333e+00   5.2590888e+01
 8.2972000e+00   5.2502098e+01
 8.3026667e+00   5.2500061e+01
 8.3081333e+00   5.2309600e+01
 8.3136000e+00   5.2392429e+01
 8.3190667e+00   5.1997824e+01
 8.3245333e+00   5.1984007e+01
 8.3300000e+00   5.1876464e+01
 8.3354667e+00   5.1784817e+01
 8.3409333e+00   5.1785824e+01
 8.3464000e+00   5.1701799e+01
 8.3518667e+00   5.1812202e+01
 8.3573333e+00   5.1483748e+01
 8.3628000e+00   5.1828960e+01
 8.3682667e+00   5.1347152e+01
 8.3737333e+00   5.1689790e+01
 8.3792000e+00   5.1320677e+01
 8.3846667e+00   5.1627359e+01
 8.3901333e+00   5.1137774e+01
 8.3956000e+00   5.1500981e+01
 8.4010667e+00   5.1135318e+01
 8.4065333e+00   5.1423297e+01
 8.4120000e+00   5.1264334e+01
 8.4174667e+00   5.1355033e+01
 8.4229333e+00   5.0987043e+01
 8.4284000e+00   5.1256193e+01
 8.4338667e+00   5.1024629e+01
 8.4393333e+00   5.1005970e+01
 8.4448000e+00   5.0901963e+01
 8.4502667e+00   5.0787009e+01
 8.4557333e+00   5.1044175e+01
 8.4612000e+00   5.0779502e+01
 8.4666667e+00   5.1135126e+01
 8.4721333e+00   5.0822996e+01
 8.4776000e+00   5.1272746e+01
 8.4830667e+00   5.1016362e+01
 8.4885333e+00   5.1246321e+01
 8.4940000e+00   5.0825803e+01
 8.4994667e+00   5.1297728e+01
 8.5049333e+00   5.0714549e+01
 8.5104000e+00   5.1052635e+01
 8.5158667e+00   5.0783142e+01
 8.5213333e+00   5.0803996e+01
 8.5268000e+00   5.0667430e+01
 8.5322667e+00   5.0609046e+01
 8.5377333e+00   5.0601559e+01
 8.5432000e+00   5.0586296e+01
 8.5486667e+00   5.0255665e+01
 8.5541333e+00   5.0427932e+01
 8.5596000e+00   5.0254683e+01
 8.5650667e+00   5.0022759e+01
 8.5705333e+00   5.0199897e+01
 8.5760000e+00   5.0044543e+01
 8.5814667e+00   5.0341584e+01
 8.5869333e+00   4.9951352e+01
 8.5924000e+00   5.0312371e+01
 8.5978667e+00   4.9768553e+01
 8.6033333e+00   5.0178291e+01
 8.6088000e+00   4.9942135e+01
 8.6142667e+00   5.0299530e+01
 8.6197333e+00   4.9757087e+01
 8.6252000e+00   5.0272852e+01
 8.6306667e+00   4.9687889e+01
 8.6361333e+00   4.9897915e+01
 8.6416000e+00   4.9432828e+01
 8.6470667e+00   4.9694756e+01
 8.6525333e+00   4.9357287e+01
 8.6580000e+00   4.9733746e+01
 8.6634667e+00   4.9378332e+01
 8.6689333e+00   4.9320078e+01
 8.6744000e+00   4.9532347e+01
 8.6798667e+00   4.9247848e+01
 8.6853333e+00   4.9581000e+01
 8.6908000e+00   4.9153704e+01
 8.6962667e+00   4.9581396e+01
 8.7017333e+00   4.9258656e+01
 8.7072000e+00   4.9653250e+01
 8.7126667e+00   4.8992835e+01
 8.7181333e+00   4.9618742e+01
 8.7236000e+00   4.8854129e+01
 8.7290667e+00   4.9425077e+01
 8.7345333e+00   4.8852128e+01
 8.7400000e+00   4.9118530e+01
 8.7454667e+00   4.8658424e+01
 8.7509333e+00   4.9029333e+01
 8.7564000e+00   4.8833314e+01
 8.7618667e+00   4.9065027e+01
 8.7673333e+00   4.8679748e+01
 8.7728000e+00   4.8982871e+01
 8.7782667e+00   4.8614578e+01
 8.7837333e+00   4.8934109e+01
 8.7892000e+00   4.8523749e+01
 8.7946667e+00   4.8636473e+01
 8.8001333e+00   4.8614685e+01
 8.8056000e+00   4.8473636e+01
 8.8110667e+00   4.8756749e+01
 8.8165333e+00   4.8334593e+01
 8.8220000e+00   4.8677362e+01
 8.8274667e+00   4.8417198e+01
 8.8329333e+00   4.8644062e+01
 8.8384000e+00   4.8360717e+01
 8.8438667e+00   4.8700657e+01
 8.8493333e+00   4.8267651e+01
 8.8548000e+00   4.8602268e+01
 8.8602667e+00   4.8230528e+01
 8.8657333e+00   4.8679650e+01
 8.8712000e+00   4.8067117e+01
 8.8766667e+00   4.8550469e+01
 8.8821333e+00   4.8247085e+01
 8.8876000e+00   4.8367765e+01
 8.8930667e+00   4.8207333e+01
 8.8985333e+00   4.8456127e+01
 8.9040000e+00   4.8134954e+01
 8.9094667e+00   4.8405158e+01
 8.9149333e+00   4.8015434e+01
 8.9204000e+00   4.8030704e+01
 8.9258667e+00   4.8178817e+01
 8.9313333e+00   4.7881354e+01
 8.9368000e+00   4.7842300e+01
 8.9422667e+00   4.7812970e+01
 8.9477333e+00   4.8001329e+01
 8.9532000e+00   4.7824623e+01
 8.9586667e+00   4.8213196e+01
 8.9641333e+00   4.7939452e+01
 8.9696000e+00   4.8157078e+01
 8.9750667e+00   4.8031595e+01
 8.9805333e+00   4.8289836e+01
 8.9860000e+00   4.8352935e+01
 8.9914667e+00   4.8682350e+01
 8.9969333e+00   4.9325314e+01
 9.0024000e+00   5.0391298e+01
 9.0078667e+00   5.1848622e+01
 9.0133333e+00   5.4626794e+01
 9.0188000e+00   5.7141377e+01
 9.0242667e+00   6.4991023e+01
 9.0297333e+00   6.3049003e+01
 9.0352000e+00   6.4889148e+01
 9.0406667e+00   6.8288518e+01
 9.0461333e+00   7.0131535e+01
 9.0516000e+00   6.6253028e+01
 9.0570667e+00   5.7083162e+01
 9.0625333e+00   6.2069109e+01
 9.0680000e+00   5.3576993e+01
 9.0734667e+00   5.2683697e+01
 9.0789333e+00   5.0504707e+01
 9.0844000e+00   5.0682008e+01
 9.0898667e+00   4.8674894e+01
 9.0953333e+00   4.8377025e+01
 9.1008000e+00   4.7334051e+01
 9.1062667e+00   4.7281982e+01
 9.1117333e+00   4.6643199e+01
 9.1172000e+00   4.6853956e+01
 9.1226667e+00   4.6519929e+01
 9.1281333e+00   4.6398290e+01
 9.1336000e+00   4.6381724e+01
 9.1390667e+00   4.6251707e+01
 9.1445333e+00   4.6208650e+01
 9.1500000e+00   4.5860675e+01
 9.1554667e+00   4.6168718e+01
 9.1609333e+00   4.5927057e+01
 9.1664000e+00   4.5612799e+01
 9.1718667e+00   4.5688651e+01
 9.1773333e+00   4.5883599e+01
 9.1828000e+00   4.5412957e+01
 9.1882667e+00   4.5729159e+01
 9.1937333e+00   4.5297735e+01
 9.1992000e+00   4.5474699e+01
 9.2046667e+00   4.5145878e+01
 9.2101333e+00   4.5400906e+01
 9.2156000e+00   4.4613610e+01
 9.2210667e+00   4.5382248e+01
 9.2265333e+00   4.4578072e+01
 9.2320000e+00   4.5055230e+01
 9.2374667e+00   4.4621690e+01
 9.2429333e+00   4.4773398e+01
 9.2484000e+00   4.4643053e+01
 9.2538667e+00   4.4732024e+01
 9.2593333e+00   4.4384731e+01
 9.2648000e+00   4.4658511e+01
 9.2702667e+00   4.4477414e+01
 9.2757333e+00   4.4498523e+01
 9.2812000e+00   4.4164918e+01
 9.2866667e+00   4.4395025e+01
 9.2921333e+00   4.4455075e+01
 9.2976000e+00   4.4087982e+01
 9.3030667e+00   4.4545133e+01
 9.3085333e+00   4.4220589e+01
 9.3140000e+00   4.4200455e+01
 9.3194667e+00   4.4086890e+01
 9.3249333e+00   4.4377669e+01
 9.3304000e+00   4.3693200e+01
 9.3358667e+00   4.4415452e+01
 9.3413333e+00   4.3576279e+01
 9.3468000e+00   4.4389580e+01
 9.3522667e+00   4.3498233e+01
 9.3577333e+00   4.4216769e+01
 9.3632000e+00   4.3616429e+01
 9.3686667e+00   4.4127156e+01
 9.3741333e+00   4.3541229e+01
 9.3796000e+00   4.4011173e+01
 9.3850667e+00   4.3723698e+01
 9.3905333e+00   4.3983255e+01
 9.3960000e+00   4.3567357e+01
 9.4014667e+00   4.4111925e+01
 9.4069333e+00   4.3643879e+01
 9.4124000e+00   4.4012900e+01
 9.4178667e+00   4.3707449e+01
 9.4233333e+00   4.3992819e+01
 9.4288000e+00   4.3887415e+01
 9.4342667e+00   4.4103870e+01
 9.4397333e+00   4.4129798e+01
 9.4452000e+00   4.4335667e+01
 9.4506667e+00   4.4654764e+01
 9.4561333e+00   4.4550848e+01
 9.4616000e+00   4.6366930e+01
 9.4670667e+00   4.5894581e+01
 9.4725333e+00   5.6190992e+01
 9.4780000e+00   5.1117860e+01
 9.4834667e+00   5.8287904e+01
 9.4889333e+00   6.9222185e+01
 9.4944000e+00   6.5927598e+01
 9.4998667e+00   9.1916802e+01
 9.5053333e+00   8.5943558e+01
 9.5108000e+00   9.2253049e+01
 9.5162667e+00   8.0189283e+01
 9.5217333e+00   7.8582452e+01
 9.5272000e+00   7.8237237e+01
 9.5326667e+00   7.6319008e+01
 9.5381333e+00   8.2416326e+01
 9.5436000e+00   7.9128715e+01
 9.5490667e+00   9.1951851e+01
 9.5545333e+00   1.0453916e+02
 9.5600000e+00   1.1166809e+02
 9.5654667e+00   1.0039857e+02
 9.5709333e+00   1.0382228e+02
 9.5764000e+00   9.6850533e+01
 9.5818667e+00   8.5491579e+01
 9.5873333e+00   6.3814209e+01
 9.5928000e+00   5.3735011e+01
 9.5982667e+00   4.9714957e+01
 9.6037333e+00   4.5772163e+01
 9.6092000e+00   4.4648850e+01
 9.6146667e+00   4.4045309e+01
 9.6201333e+00   4.3220238e+01
 9.6256000e+00   4.3323942e+01
 9.6310667e+00   4.2674115e+01
 9.6365333e+00   4.2720132e+01
 9.6420000e+00   4.2216243e+01
 9.6474667e+00   4.2297611e+01
 9.6529333e+00   4.2173932e+01
 9.6584000e+00   4.2145615e+01
 9.6638667e+00   4.1675264e+01
 9.6693333e+00   4.2088990e+01
 9.6748000e+00   4.1792099e+01
 9.6802667e+00   4.1611315e+01
 9.6857333e+00   4.1595805e+01
 9.6912000e+00   4.1429949e+01
 9.6966667e+00   4.1231757e+01
 9.7021333e+00   4.1352576e+01
 9.7076000e+00   4.1012956e+01
 9.7130667e+00   4.1185651e+01
 9.7185333e+00   4.0721134e+01
 9.7240000e+00   4.0855731e+01
 9.7294667e+00   4.0767533e+01
 9.7349333e+00   4.0828946e+01
 9.7404000e+00   4.0518803e+01
 9.7458667e+00   4.0626331e+01
 9.7513333e+00   4.0510353e+01
 9.7568000e+00   4.0733962e+01
 9.7622667e+00   4.0113602e+01
 9.7677333e+00   4.0447942e+01
 9.7732000e+00   4.0430259e+01
 9.7786667e+00   3.9976119e+01
 9.7841333e+00   4.0289708e+01
 9.7896000e+00   3.9927798e+01
 9.7950667e+00   4.0148729e+01
 9.8005333e+00   3.9977892e+01
 9.8060000e+00   4.0074322e+01
 9.8114667e+00   3.9915504e+01
 9.8169333e+00   4.0160851e+01
 9.8224000e+00   3.9851977e+01
 9.8278667e+00   4.0030626e+01
 9.8333333e+00   4.0098276e+01
 9.8388000e+00   4.0124689e+01
 9.8442667e+00   4.0111876e+01
 9.8497333e+00   3.9882816e+01
 9.8552000e+00   4.0378457e+01
 9.8606667e+00   4.0025693e+01
 9.8661333e+00   4.0158077e+01
 9.8716000e+00   4.0479578e+01
 9.8770667e+00   4.0365739e+01
 9.8825333e+00   4.0375846e+01
 9.8880000e+00   4.0689117e+01
 9.8934667e+00   4.1027561e+01
 9.8989333e+00   4.1175674e+01
 9.9044000e+00   4.1749729e+01
 9.9098667e+00   4.2575734e+01
 9.9153333e+00   4.5285526e+01
 9.9208000e+00   4.6612779e+01
 9.9262667e+00   5.1138844e+01
 9.9317333e+00   5.3121224e+01
 9.9372000e+00   6.1068092e+01
 9.9426667e+00   7.1344925e+01
 9.9481333e+00   5.9385553e+01
 9.9536000e+00   8.1265515e+01
 9.9590667e+00   6.4504113e+01
 9.9645333e+00   6.8307849e+01
 9.9700000e+00   6.9230533e+01
 9.9754667e+00   6.2277845e+01
 9.9809333e+00   6.6803749e+01
 9.9864000e+00   6.7957401e+01
 9.9918667e+00   6.0322278e+01
 9.9973333e+00   6.0477356e+01
 1.0002800e+01   4.8661989e+01
 1.0008267e+01   4.4998617e+01
 1.0013733e+01   4.4226762e+01
 1.0019200e+01   4.2674844e+01
 1.0024667e+01   4.1381712e+01
 1.0030133e+01   4.0822258e+01
 1.0035600e+01   4.0964497e+01
 1.0041067e+01   4.0532716e+01
 1.0046533e+01   4.0534321e+01
 1.0052000e+01   4.0930828e+01
 1.0057467e+01   4.0646226e+01
 1.0062933e+01   4.0976395e+01
 1.0068400e+01   4.1610786e+01
 1.0073867e+01   4.2255210e+01
 1.0079333e+01   4.3581196e+01
 1.0084800e+01   4.6258284e+01
 1.0090267e+01   5.2294760e+01
 1.0095733e+01   5.1234493e+01
 1.0101200e+01   6.0444724e+01
 1.0106667e+01   6.4794049e+01
 1.0112133e+01   7.2556762e+01
 1.0117600e+01   7.1498525e+01
 1.0123067e+01   6.3991376e+01
 1.0128533e+01   6.3979999e+01
 1.0134000e+01   5.3354489e+01
 1.0139467e+01   4.8153413e+01
 1.0144933e+01   4.5390092e+01
 1.0150400e+01   4.2712354e+01
 1.0155867e+01   4.1256212e+01
 1.0161333e+01   3.9809922e+01
 1.0166800e+01   3.9631407e+01
 1.0172267e+01   3.8984650e+01
 1.0177733e+01   3.8828804e+01
 1.0183200e+01   3.8675810e+01
 1.0188667e+01   3.8386963e+01
 1.0194133e+01   3.8450190e+01
 1.0199600e+01   3.8042940e+01
 1.0205067e+01   3.8014962e+01
 1.0210533e+01   3.8178222e+01
 1.0216000e+01   3.7740777e+01
 1.0221467e+01   3.7900498e+01
 1.0226933e+01   3.7850605e+01
 1.0232400e+01   3.7699852e+01
 1.0237867e+01   3.7724326e+01
 1.0243333e+01   3.7726027e+01
 1.0248800e+01   3.7695432e+01
 1.0254267e+01   3.7402652e+01
 1.0259733e+01   3.7469062e+01
 1.0265200e+01   3.7293953e+01
 1.0270667e+01   3.7275483e+01
 1.0276133e+01   3.7251467e+01
 1.0281600e+01   3.7329900e+01
 1.0287067e+01   3.6964232e+01
 1.0292533e+01   3.7100231e+01
 1.0298000e+01   3.7004681e+01
 1.0303467e+01   3.7077640e+01
 1.0308933e+01   3.6974981e+01
 1.0314400e+01   3.7024178e+01
 1.0319867e+01   3.6955692e+01
 1.0325333e+01   3.6853053e+01
 1.0330800e+01   3.6856839e+01
 1.0336267e+01   3.6873375e+01
 1.0341733e+01   3.6735551e+01
 1.0347200e+01   3.6779462e+01
 1.0352667e+01   3.6568287e+01
 1.0358133e+01   3.6728607e+01
 1.0363600e+01   3.6431681e+01
 1.0369067e+01   3.6670562e+01
 1.0374533e+01   3.6530173e+01
 1.0380000e+01   3.6539982e+01
 1.0385467e+01   3.6462749e+01
 1.0390933e+01   3.6532931e+01
 1.0396400e+01   3.6456586e+01
 1.0401867e+01   3.6591022e+01
 1.0407333e+01   3.6264820e+01
 1.0412800e+01   3.6366081e+01
 1.0418267e+01   3.6315223e+01
 1.0423733e+01   3.6320725e+01
 1.0429200e+01   3.6307444e+01
 1.0434667e+01   3.6476282e+01
 1.0440133e+01   3.6537803e+01
 1.0445600e+01   3.6237381e+01
 1.0451067e+01   3.6875099e+01
 1.0456533e+01   3.6315932e+01
 1.0462000e+01   3.6415025e+01
 1.0467467e+01   3.6486747e+01
 1.0472933e+01   3.6131485e+01
 1.0478400e+01   3.6247393e+01
 1.0483867e+01   3.6207372e+01
 1.0489333e+01   3.5910736e+01
 1.0494800e+01   3.6076299e+01
 1.0500267e+01   3.5882205e+01
 1.0505733e+01   3.5920494e+01
 1.0511200e+01   3.5892903e+01
 1.0516667e+01   3.6062222e+01
 1.0522133e+01   3.5931995e+01
 1.0527600e+01   3.6043863e+01
 1.0533067e+01   3.5996466e+01
 1.0538533e+01   3.5922665e+01
 1.0544000e+01   3.5937918e+01
 1.0549467e+01   3.5844664e+01
 1.0554933e+01   3.5852337e+01
 1.0560400e+01   3.5850955e+01
 1.0565867e+01   3.5897688e+01
 1.0571333e+01   3.5704135e+01
 1.0576800e+01   3.5846401e+01
 1.0582267e+01   3.5731858e+01
 1.0587733e+01   3.5889873e+01
 1.0593200e+01   3.5837622e+01
 1.0598667e+01   3.5670518e+01
 1.0604133e+01   3.5887041e+01
 1.0609600e+01   3.5670744e+01
 1.0615067e+01   3.5871838e+01
 1.0620533e+01   3.5579997e+01
 1.0626000e+01   3.5875640e+01
 1.0631467e+01   3.5671392e+01
 1.0636933e+01   3.5859799e+01
 1.0642400e+01   3.5794355e+01
 1.0647867e+01   3.5616514e+01
 1.0653333e+01   3.5857739e+01
 1.0658800e+01   3.5755325e+01
 1.0664267e+01   3.5525075e+01
 1.0669733e+01   3.5761665e+01
 1.0675200e+01   3.5633952e+01
 1.0680667e+01   3.5579139e+01
 1.0686133e+01   3.5666375e+01
 1.0691600e+01   3.5625882e+01
 1.0697067e+01   3.5479419e+01
 1.0702533e+01   3.5710844e+01
 1.0708000e+01   3.5611827e+01
 1.0713467e+01   3.5670475e+01
 1.0718933e+01   3.5751829e+01
 1.0724400e+01   3.5724278e+01
 1.0729867e+01   3.5621468e+01
 1.0735333e+01   3.5646574e+01
 1.0740800e+01   3.5557602e+01
 1.0746267e+01   3.5645080e+01
 1.0751733e+01   3.5563854e+01
 1.0757200e+01   3.5757927e+01
 1.0762667e+01   3.5488326e+01
 1.0768133e+01   3.5656228e+01
 1.0773600e+01   3.5306438e+01
 1.0779067e+01   3.5556085e+01
 1.0784533e+01   3.5506743e+01
 1.0790000e+01   3.5493391e+01
 1.0795467e+01   3.5621789e+01
 1.0800933e+01   3.5454792e+01
 1.0806400e+01   3.5543033e+01
 1.0811867e+01   3.5611391e+01
 1.0817333e+01   3.5638583e+01
 1.0822800e+01   3.5627331e+01
 1.0828267e+01   3.5722333e+01
 1.0833733e+01   3.5576540e+01
 1.0839200e+01   3.5745213e+01
 1.0844667e+01   3.5679828e+01
 1.0850133e+01   3.5700570e+01
 1.0855600e+01   3.5677945e+01
 1.0861067e+01   3.5739357e+01
 1.0866533e+01   3.5629474e+01
 1.0872000e+01   3.5737840e+01
 1.0877467e+01   3.5650381e+01
 1.0882933e+01   3.5753836e+01
 1.0888400e+01   3.5606629e+01
 1.0893867e+01   3.5670028e+01
 1.0899333e+01   3.5780964e+01
 1.0904800e+01   3.5542922e+01
 1.0910267e+01   3.5680667e+01
 1.0915733e+01   3.5840889e+01
 1.0921200e+01   3.5673211e+01
 1.0926667e+01   3.5677030e+01
 1.0932133e+01   3.5773545e+01
 1.0937600e+01   3.5728998e+01
 1.0943067e+01   3.5709132e+01
 1.0948533e+01   3.5767851e+01
 1.0954000e+01   3.5830008e+01
 1.0959467e+01   3.5813274e+01
 1.0964933e+01   3.5909330e+01
 1.0970400e+01   3.5662616e+01
 1.0975867e+01   3.6005513e+01
 1.0981333e+01   3.5819515e+01
 1.0986800e+01   3.5924672e+01
 1.0992267e+01   3.5775315e+01
 1.0997733e+01   3.6026932e+01
 1.1003200e+01   3.5831102e+01
 1.1008667e+01   3.6016646e+01
 1.1014133e+01   3.5883112e+01
 1.1019600e+01   3.6218296e+01
 1.1025067e+01   3.6038629e+01
 1.1030533e+01   3.6029614e+01
 1.1036000e+01   3.6432250e+01
 1.1041467e+01   3.6380620e+01
 1.1046933e+01   3.6725282e+01
 1.1052400e+01   3.6961929e+01
 1.1057867e+01   3.7287860e+01
 1.1063333e+01   3.7629460e+01
 1.1068800e+01   3.7873437e+01
 1.1074267e+01   3.7964185e+01
 1.1079733e+01   3.8003358e+01
 1.1085200e+01   3.7575886e+01
 1.1090667e+01   3.7947524e+01
 1.1096133e+01   3.7254959e+01
 1.1101600e+01   3.7200398e+01
 1.1107067e+01   3.6743280e+01
 1.1112533e+01   3.6875442e+01
 1.1118000e+01   3.6506770e+01
 1.1123467e+01   3.6493849e+01
 1.1128933e+01   3.6250709e+01
 1.1134400e+01   3.6125452e+01
 1.1139867e+01   3.6233533e+01
 1.1145333e+01   3.6348728e+01
 1.1150800e+01   3.6214598e+01
 1.1156267e+01   3.6231886e+01
 1.1161733e+01   3.6220697e+01
 1.1167200e+01   3.6345004e+01
 1.1172667e+01   3.6160659e+01
 1.1178133e+01   3.5980434e+01
 1.1183600e+01   3.6215409e+01
 1.1189067e+01   3.5905990e+01
 1.1194533e+01   3.6211712e+01
