PWDR ff_004433_sum_norm_dc_0.tif Azm= 352.fxye Bank 1
2-Theta Angle (Degrees)
Intensity
       1500
 3.0000000e+00   4.6131774e+01
 3.0054667e+00   4.5995262e+01
 3.0109333e+00   4.5667860e+01
 3.0164000e+00   4.5830031e+01
 3.0218667e+00   4.5580693e+01
 3.0273333e+00   4.5519785e+01
 3.0328000e+00   4.5217827e+01
 3.0382667e+00   4.5010636e+01
 3.0437333e+00   4.4505855e+01
 3.0492000e+00   4.4578693e+01
 3.0546667e+00   4.4324769e+01
 3.0601333e+00   4.3937767e+01
 3.0656000e+00   4.3934470e+01
 3.0710667e+00   4.3395434e+01
 3.0765333e+00   4.3254320e+01
 3.0820000e+00   4.3015216e+01
 3.0874667e+00   4.2886481e+01
 3.0929333e+00   4.2575890e+01
 3.0984000e+00   4.2520686e+01
 3.1038667e+00   4.2180768e+01
 3.1093333e+00   4.2344140e+01
 3.1148000e+00   4.1725216e+01
 3.1202667e+00   4.2092436e+01
 3.1257333e+00   4.1616791e+01
 3.1312000e+00   4.1588162e+01
 3.1366667e+00   4.1143697e+01
 3.1421333e+00   4.1052547e+01
 3.1476000e+00   4.0940928e+01
 3.1530667e+00   4.0742675e+01
 3.1585333e+00   4.0685326e+01
 3.1640000e+00   4.0318473e+01
 3.1694667e+00   4.0450264e+01
 3.1749333e+00   4.0183042e+01
 3.1804000e+00   4.0189660e+01
 3.1858667e+00   3.9911969e+01
 3.1913333e+00   4.0112800e+01
 3.1968000e+00   3.9576201e+01
 3.2022667e+00   3.9908110e+01
 3.2077333e+00   3.9570565e+01
 3.2132000e+00   3.9615973e+01
 3.2186667e+00   3.9415648e+01
 3.2241333e+00   3.9575324e+01
 3.2296000e+00   3.9075940e+01
 3.2350667e+00   3.9194690e+01
 3.2405333e+00   3.9065873e+01
 3.2460000e+00   3.8864435e+01
 3.2514667e+00   3.8785607e+01
 3.2569333e+00   3.8625658e+01
 3.2624000e+00   3.8623639e+01
 3.2678667e+00   3.8365323e+01
 3.2733333e+00   3.8554925e+01
 3.2788000e+00   3.8191475e+01
 3.2842667e+00   3.8378542e+01
 3.2897333e+00   3.8015579e+01
 3.2952000e+00   3.8270575e+01
 3.3006667e+00   3.7832251e+01
 3.3061333e+00   3.8000030e+01
 3.3116000e+00   3.7787561e+01
 3.3170667e+00   3.7838256e+01
 3.3225333e+00   3.7611620e+01
 3.3280000e+00   3.7616025e+01
 3.3334667e+00   3.7455160e+01
 3.3389333e+00   3.7503238e+01
 3.3444000e+00   3.7413301e+01
 3.3498667e+00   3.7202006e+01
 3.3553333e+00   3.7388000e+01
 3.3608000e+00   3.7209695e+01
 3.3662667e+00   3.7139693e+01
 3.3717333e+00   3.7017311e+01
 3.3772000e+00   3.6967789e+01
 3.3826667e+00   3.6818118e+01
 3.3881333e+00   3.6891978e+01
 3.3936000e+00   3.6741050e+01
 3.3990667e+00   3.6886023e+01
 3.4045333e+00   3.6645303e+01
 3.4100000e+00   3.6730055e+01
 3.4154667e+00   3.6572734e+01
 3.4209333e+00   3.6475886e+01
 3.4264000e+00   3.6456600e+01
 3.4318667e+00   3.6171573e+01
 3.4373333e+00   3.6341919e+01
 3.4428000e+00   3.5938181e+01
 3.4482667e+00   3.6349023e+01
 3.4537333e+00   3.5986579e+01
 3.4592000e+00   3.6155056e+01
 3.4646667e+00   3.5888793e+01
 3.4701333e+00   3.6037138e+01
 3.4756000e+00   3.5849454e+01
 3.4810667e+00   3.5904500e+01
 3.4865333e+00   3.5781700e+01
 3.4920000e+00   3.5819364e+01
 3.4974667e+00   3.5928123e+01
 3.5029333e+00   3.5698958e+01
 3.5084000e+00   3.5940765e+01
 3.5138667e+00   3.5628964e+01
 3.5193333e+00   3.5891409e+01
 3.5248000e+00   3.5652700e+01
 3.5302667e+00   3.6018388e+01
 3.5357333e+00   3.5699575e+01
 3.5412000e+00   3.6015956e+01
 3.5466667e+00   3.5890290e+01
 3.5521333e+00   3.6123587e+01
 3.5576000e+00   3.5949351e+01
 3.5630667e+00   3.6047625e+01
 3.5685333e+00   3.5947385e+01
 3.5740000e+00   3.5971993e+01
 3.5794667e+00   3.5806383e+01
 3.5849333e+00   3.5781696e+01
 3.5904000e+00   3.5869088e+01
 3.5958667e+00   3.5643758e+01
 3.6013333e+00   3.5840053e+01
 3.6068000e+00   3.5490574e+01
 3.6122667e+00   3.5905660e+01
 3.6177333e+00   3.5506492e+01
 3.6232000e+00   3.5967924e+01
 3.6286667e+00   3.5470744e+01
 3.6341333e+00   3.5859791e+01
 3.6396000e+00   3.5635298e+01
 3.6450667e+00   3.5781873e+01
 3.6505333e+00   3.5723446e+01
 3.6560000e+00   3.5818743e+01
 3.6614667e+00   3.5728268e+01
 3.6669333e+00   3.5773335e+01
 3.6724000e+00   3.5799498e+01
 3.6778667e+00   3.5829122e+01
 3.6833333e+00   3.6038190e+01
 3.6888000e+00   3.5831753e+01
 3.6942667e+00   3.6239125e+01
 3.6997333e+00   3.5920471e+01
 3.7052000e+00   3.6250843e+01
 3.7106667e+00   3.6172555e+01
 3.7161333e+00   3.6348933e+01
 3.7216000e+00   3.6161150e+01
 3.7270667e+00   3.6288501e+01
 3.7325333e+00   3.6152176e+01
 3.7380000e+00   3.6326731e+01
 3.7434667e+00   3.6388367e+01
 3.7489333e+00   3.6325264e+01
 3.7544000e+00   3.6448505e+01
 3.7598667e+00   3.6510498e+01
 3.7653333e+00   3.6423534e+01
 3.7708000e+00   3.6524296e+01
 3.7762667e+00   3.6627172e+01
 3.7817333e+00   3.6471831e+01
 3.7872000e+00   3.6754396e+01
 3.7926667e+00   3.6721249e+01
 3.7981333e+00   3.6846811e+01
 3.8036000e+00   3.6898981e+01
 3.8090667e+00   3.7094233e+01
 3.8145333e+00   3.6897481e+01
 3.8200000e+00   3.7134224e+01
 3.8254667e+00   3.7190423e+01
 3.8309333e+00   3.7340319e+01
 3.8364000e+00   3.7281723e+01
 3.8418667e+00   3.7380805e+01
 3.8473333e+00   3.7592386e+01
 3.8528000e+00   3.7567307e+01
 3.8582667e+00   3.7817476e+01
 3.8637333e+00   3.7784857e+01
 3.8692000e+00   3.8065535e+01
 3.8746667e+00   3.7971091e+01
 3.8801333e+00   3.8336992e+01
 3.8856000e+00   3.8247846e+01
 3.8910667e+00   3.8601682e+01
 3.8965333e+00   3.8506217e+01
 3.9020000e+00   3.8926840e+01
 3.9074667e+00   3.8936702e+01
 3.9129333e+00   3.9193011e+01
 3.9184000e+00   3.9187273e+01
 3.9238667e+00   3.9376253e+01
 3.9293333e+00   3.9475255e+01
 3.9348000e+00   3.9542011e+01
 3.9402667e+00   3.9645952e+01
 3.9457333e+00   3.9461878e+01
 3.9512000e+00   3.9701112e+01
 3.9566667e+00   3.9612056e+01
 3.9621333e+00   3.9858413e+01
 3.9676000e+00   3.9780767e+01
 3.9730667e+00   3.9954179e+01
 3.9785333e+00   3.9962607e+01
 3.9840000e+00   4.0136406e+01
 3.9894667e+00   4.0268715e+01
 3.9949333e+00   4.0437469e+01
 4.0004000e+00   4.0540196e+01
 4.0058667e+00   4.0773641e+01
 4.0113333e+00   4.0913909e+01
 4.0168000e+00   4.0923883e+01
 4.0222667e+00   4.1328147e+01
 4.0277333e+00   4.1482020e+01
 4.0332000e+00   4.2055204e+01
 4.0386667e+00   4.2195345e+01
 4.0441333e+00   4.3262537e+01
 4.0496000e+00   4.3842946e+01
 4.0550667e+00   4.6005956e+01
 4.0605333e+00   4.8501494e+01
 4.0660000e+00   5.4956343e+01
 4.0714667e+00   6.3563201e+01
 4.0769333e+00   7.7934822e+01
 4.0824000e+00   9.3553869e+01
 4.0878667e+00   1.1964013e+02
 4.0933333e+00   1.4565428e+02
 4.0988000e+00   1.8149788e+02
 4.1042667e+00   2.0413753e+02
 4.1097333e+00   2.2382783e+02
 4.1152000e+00   2.3196752e+02
 4.1206667e+00   2.2248265e+02
 4.1261333e+00   2.0695433e+02
 4.1316000e+00   1.8088486e+02
 4.1370667e+00   1.5298026e+02
 4.1425333e+00   1.2279214e+02
 4.1480000e+00   9.8177343e+01
 4.1534667e+00   8.1482918e+01
 4.1589333e+00   6.7294121e+01
 4.1644000e+00   5.7732449e+01
 4.1698667e+00   5.2534482e+01
 4.1753333e+00   4.9346793e+01
 4.1808000e+00   4.7717455e+01
 4.1862667e+00   4.7003835e+01
 4.1917333e+00   4.6341904e+01
 4.1972000e+00   4.6254964e+01
 4.2026667e+00   4.5926510e+01
 4.2081333e+00   4.6064547e+01
 4.2136000e+00   4.5645216e+01
 4.2190667e+00   4.5911873e+01
 4.2245333e+00   4.5587571e+01
 4.2300000e+00   4.5836159e+01
 4.2354667e+00   4.5469554e+01
 4.2409333e+00   4.5798638e+01
 4.2464000e+00   4.5644749e+01
 4.2518667e+00   4.5763876e+01
 4.2573333e+00   4.5809243e+01
 4.2628000e+00   4.5964993e+01
 4.2682667e+00   4.5967850e+01
 4.2737333e+00   4.6023032e+01
 4.2792000e+00   4.6343927e+01
 4.2846667e+00   4.6095396e+01
 4.2901333e+00   4.6405310e+01
 4.2956000e+00   4.6294804e+01
 4.3010667e+00   4.6715326e+01
 4.3065333e+00   4.6468782e+01
 4.3120000e+00   4.6940276e+01
 4.3174667e+00   4.6786864e+01
 4.3229333e+00   4.7111081e+01
 4.3284000e+00   4.7193770e+01
 4.3338667e+00   4.7494188e+01
 4.3393333e+00   4.7599006e+01
 4.3448000e+00   4.7871717e+01
 4.3502667e+00   4.8096937e+01
 4.3557333e+00   4.8154037e+01
 4.3612000e+00   4.8539265e+01
 4.3666667e+00   4.8951067e+01
 4.3721333e+00   4.9275492e+01
 4.3776000e+00   5.0015065e+01
 4.3830667e+00   5.0356332e+01
 4.3885333e+00   5.0554545e+01
 4.3940000e+00   5.2237127e+01
 4.3994667e+00   5.3672227e+01
 4.4049333e+00   5.7660835e+01
 4.4104000e+00   6.3711743e+01
 4.4158667e+00   7.5546507e+01
 4.4213333e+00   9.2706786e+01
 4.4268000e+00   1.1649165e+02
 4.4322667e+00   1.5032671e+02
 4.4377333e+00   1.8935844e+02
 4.4432000e+00   2.2994502e+02
 4.4486667e+00   2.6882506e+02
 4.4541333e+00   3.0275088e+02
 4.4596000e+00   3.1624958e+02
 4.4650667e+00   3.0391652e+02
 4.4705333e+00   2.7327071e+02
 4.4760000e+00   2.3138168e+02
 4.4814667e+00   1.9283878e+02
 4.4869333e+00   1.5711896e+02
 4.4924000e+00   1.3629342e+02
 4.4978667e+00   1.3363692e+02
 4.5033333e+00   1.3569364e+02
 4.5088000e+00   1.5415435e+02
 4.5142667e+00   1.7619978e+02
 4.5197333e+00   2.0414997e+02
 4.5252000e+00   2.3267324e+02
 4.5306667e+00   2.6052076e+02
 4.5361333e+00   2.7754967e+02
 4.5416000e+00   2.8307444e+02
 4.5470667e+00   2.6544934e+02
 4.5525333e+00   2.4045406e+02
 4.5580000e+00   2.0350630e+02
 4.5634667e+00   1.7339843e+02
 4.5689333e+00   1.4075965e+02
 4.5744000e+00   1.2043699e+02
 4.5798667e+00   1.0145612e+02
 4.5853333e+00   8.8139771e+01
 4.5908000e+00   8.1393345e+01
 4.5962667e+00   7.3910575e+01
 4.6017333e+00   7.1709092e+01
 4.6072000e+00   7.0941518e+01
 4.6126667e+00   7.2753101e+01
 4.6181333e+00   7.7382429e+01
 4.6236000e+00   8.6801657e+01
 4.6290667e+00   1.0594731e+02
 4.6345333e+00   1.4195905e+02
 4.6400000e+00   1.9248129e+02
 4.6454667e+00   2.7038481e+02
 4.6509333e+00   3.6616438e+02
 4.6564000e+00   4.8521424e+02
 4.6618667e+00   5.9811782e+02
 4.6673333e+00   7.0672229e+02
 4.6728000e+00   7.8307713e+02
 4.6782667e+00   8.5025975e+02
 4.6837333e+00   8.4247808e+02
 4.6892000e+00   8.0182964e+02
 4.6946667e+00   6.9472956e+02
 4.7001333e+00   6.0031985e+02
 4.7056000e+00   4.7536193e+02
 4.7110667e+00   3.6538352e+02
 4.7165333e+00   2.7328418e+02
 4.7220000e+00   1.9745637e+02
 4.7274667e+00   1.3995816e+02
 4.7329333e+00   1.0454609e+02
 4.7384000e+00   8.2932665e+01
 4.7438667e+00   7.2436984e+01
 4.7493333e+00   6.6512481e+01
 4.7548000e+00   6.3939188e+01
 4.7602667e+00   6.1059347e+01
 4.7657333e+00   6.0443099e+01
 4.7712000e+00   5.8640793e+01
 4.7766667e+00   5.7971024e+01
 4.7821333e+00   5.7048717e+01
 4.7876000e+00   5.7091684e+01
 4.7930667e+00   5.6093816e+01
 4.7985333e+00   5.5967276e+01
 4.8040000e+00   5.5917583e+01
 4.8094667e+00   5.5054197e+01
 4.8149333e+00   5.5681562e+01
 4.8204000e+00   5.5140488e+01
 4.8258667e+00   5.5503223e+01
 4.8313333e+00   5.5006623e+01
 4.8368000e+00   5.5595654e+01
 4.8422667e+00   5.4928142e+01
 4.8477333e+00   5.5673395e+01
 4.8532000e+00   5.5241337e+01
 4.8586667e+00   5.5852484e+01
 4.8641333e+00   5.5482084e+01
 4.8696000e+00   5.6221064e+01
 4.8750667e+00   5.5830769e+01
 4.8805333e+00   5.6666369e+01
 4.8860000e+00   5.6790444e+01
 4.8914667e+00   5.6950483e+01
 4.8969333e+00   5.8190580e+01
 4.9024000e+00   5.8374591e+01
 4.9078667e+00   5.9556249e+01
 4.9133333e+00   6.0231708e+01
 4.9188000e+00   6.3086915e+01
 4.9242667e+00   6.3661861e+01
 4.9297333e+00   6.9224416e+01
 4.9352000e+00   7.5313461e+01
 4.9406667e+00   9.5427218e+01
 4.9461333e+00   1.0073784e+02
 4.9516000e+00   1.4979658e+02
 4.9570667e+00   1.5453171e+02
 4.9625333e+00   2.5381542e+02
 4.9680000e+00   2.6249167e+02
 4.9734667e+00   4.1003919e+02
 4.9789333e+00   3.7834603e+02
 4.9844000e+00   4.3391410e+02
 4.9898667e+00   4.2383040e+02
 4.9953333e+00   4.1445504e+02
 5.0008000e+00   4.5190341e+02
 5.0062667e+00   3.1775622e+02
 5.0117333e+00   3.8924755e+02
 5.0172000e+00   2.7206738e+02
 5.0226667e+00   2.4115039e+02
 5.0281333e+00   2.2339831e+02
 5.0336000e+00   1.3227569e+02
 5.0390667e+00   1.2100704e+02
 5.0445333e+00   8.3648078e+01
 5.0500000e+00   7.5741019e+01
 5.0554667e+00   6.7403027e+01
 5.0609333e+00   6.5393045e+01
 5.0664000e+00   6.0876760e+01
 5.0718667e+00   6.1660808e+01
 5.0773333e+00   5.8080490e+01
 5.0828000e+00   5.8705322e+01
 5.0882667e+00   5.6303816e+01
 5.0937333e+00   5.6716905e+01
 5.0992000e+00   5.4983303e+01
 5.1046667e+00   5.4961213e+01
 5.1101333e+00   5.3976895e+01
 5.1156000e+00   5.3681168e+01
 5.1210667e+00   5.2639683e+01
 5.1265333e+00   5.2803301e+01
 5.1320000e+00   5.1565184e+01
 5.1374667e+00   5.1800187e+01
 5.1429333e+00   5.0850819e+01
 5.1484000e+00   5.0721533e+01
 5.1538667e+00   5.0489074e+01
 5.1593333e+00   4.9725933e+01
 5.1648000e+00   5.0267830e+01
 5.1702667e+00   4.9046243e+01
 5.1757333e+00   4.9616510e+01
 5.1812000e+00   4.8572151e+01
 5.1866667e+00   4.8884317e+01
 5.1921333e+00   4.8081974e+01
 5.1976000e+00   4.8358372e+01
 5.2030667e+00   4.7539615e+01
 5.2085333e+00   4.7908954e+01
 5.2140000e+00   4.7097574e+01
 5.2194667e+00   4.7588565e+01
 5.2249333e+00   4.6868547e+01
 5.2304000e+00   4.7050098e+01
 5.2358667e+00   4.6555813e+01
 5.2413333e+00   4.6663003e+01
 5.2468000e+00   4.6352026e+01
 5.2522667e+00   4.6127674e+01
 5.2577333e+00   4.6376691e+01
 5.2632000e+00   4.5829939e+01
 5.2686667e+00   4.6009510e+01
 5.2741333e+00   4.5725889e+01
 5.2796000e+00   4.5628128e+01
 5.2850667e+00   4.5444043e+01
 5.2905333e+00   4.5503584e+01
 5.2960000e+00   4.4989428e+01
 5.3014667e+00   4.5382111e+01
 5.3069333e+00   4.5043818e+01
 5.3124000e+00   4.5254974e+01
 5.3178667e+00   4.4796501e+01
 5.3233333e+00   4.5061422e+01
 5.3288000e+00   4.4605185e+01
 5.3342667e+00   4.4712791e+01
 5.3397333e+00   4.4542347e+01
 5.3452000e+00   4.4305616e+01
 5.3506667e+00   4.4581158e+01
 5.3561333e+00   4.4295146e+01
 5.3616000e+00   4.4303736e+01
 5.3670667e+00   4.4558608e+01
 5.3725333e+00   4.4649705e+01
 5.3780000e+00   4.7536762e+01
 5.3834667e+00   4.4568801e+01
 5.3889333e+00   4.8885461e+01
 5.3944000e+00   4.3859995e+01
 5.3998667e+00   4.3927792e+01
 5.4053333e+00   4.3559729e+01
 5.4108000e+00   4.3386556e+01
 5.4162667e+00   4.3367067e+01
 5.4217333e+00   4.3207167e+01
 5.4272000e+00   4.3282439e+01
 5.4326667e+00   4.3190591e+01
 5.4381333e+00   4.3119306e+01
 5.4436000e+00   4.3077280e+01
 5.4490667e+00   4.3184071e+01
 5.4545333e+00   4.3033418e+01
 5.4600000e+00   4.3026052e+01
 5.4654667e+00   4.3068816e+01
 5.4709333e+00   4.2824102e+01
 5.4764000e+00   4.2964318e+01
 5.4818667e+00   4.2840963e+01
 5.4873333e+00   4.2757617e+01
 5.4928000e+00   4.2793368e+01
 5.4982667e+00   4.2741398e+01
 5.5037333e+00   4.2804504e+01
 5.5092000e+00   4.2787522e+01
 5.5146667e+00   4.2933207e+01
 5.5201333e+00   4.2791212e+01
 5.5256000e+00   4.2916863e+01
 5.5310667e+00   4.2832507e+01
 5.5365333e+00   4.2823150e+01
 5.5420000e+00   4.2971864e+01
 5.5474667e+00   4.2855029e+01
 5.5529333e+00   4.3001198e+01
 5.5584000e+00   4.2914628e+01
 5.5638667e+00   4.3110471e+01
 5.5693333e+00   4.3068464e+01
 5.5748000e+00   4.3254629e+01
 5.5802667e+00   4.3096954e+01
 5.5857333e+00   4.3280352e+01
 5.5912000e+00   4.3033267e+01
 5.5966667e+00   4.3414980e+01
 5.6021333e+00   4.3345219e+01
 5.6076000e+00   4.3590874e+01
 5.6130667e+00   4.3474978e+01
 5.6185333e+00   4.3730605e+01
 5.6240000e+00   4.3687512e+01
 5.6294667e+00   4.4057992e+01
 5.6349333e+00   4.4044828e+01
 5.6404000e+00   4.4024707e+01
 5.6458667e+00   4.4432119e+01
 5.6513333e+00   4.4517120e+01
 5.6568000e+00   4.4609390e+01
 5.6622667e+00   4.5128290e+01
 5.6677333e+00   4.5511084e+01
 5.6732000e+00   4.5861679e+01
 5.6786667e+00   4.6980063e+01
 5.6841333e+00   4.8575464e+01
 5.6896000e+00   5.0708729e+01
 5.6950667e+00   5.4664096e+01
 5.7005333e+00   6.6897851e+01
 5.7060000e+00   8.5478699e+01
 5.7114667e+00   8.5542208e+01
 5.7169333e+00   1.2265734e+02
 5.7224000e+00   1.2967857e+02
 5.7278667e+00   1.2706587e+02
 5.7333333e+00   1.7938155e+02
 5.7388000e+00   1.8260159e+02
 5.7442667e+00   1.8653602e+02
 5.7497333e+00   2.2428643e+02
 5.7552000e+00   2.2514481e+02
 5.7606667e+00   1.9673514e+02
 5.7661333e+00   2.3741733e+02
 5.7716000e+00   1.9424192e+02
 5.7770667e+00   2.0770714e+02
 5.7825333e+00   1.6274657e+02
 5.7880000e+00   1.6891572e+02
 5.7934667e+00   1.4641796e+02
 5.7989333e+00   1.2679752e+02
 5.8044000e+00   1.0357558e+02
 5.8098667e+00   8.8858674e+01
 5.8153333e+00   6.2824905e+01
 5.8208000e+00   5.7385817e+01
 5.8262667e+00   5.1017348e+01
 5.8317333e+00   4.8763155e+01
 5.8372000e+00   4.6990213e+01
 5.8426667e+00   4.6126468e+01
 5.8481333e+00   4.5051739e+01
 5.8536000e+00   4.4713200e+01
 5.8590667e+00   4.4155428e+01
 5.8645333e+00   4.4106891e+01
 5.8700000e+00   4.3357000e+01
 5.8754667e+00   4.3301725e+01
 5.8809333e+00   4.3003894e+01
 5.8864000e+00   4.2753972e+01
 5.8918667e+00   4.2374096e+01
 5.8973333e+00   4.2317211e+01
 5.9028000e+00   4.2040661e+01
 5.9082667e+00   4.1727986e+01
 5.9137333e+00   4.1663586e+01
 5.9192000e+00   4.1407315e+01
 5.9246667e+00   4.1313668e+01
 5.9301333e+00   4.1252632e+01
 5.9356000e+00   4.1084420e+01
 5.9410667e+00   4.1075594e+01
 5.9465333e+00   4.1048104e+01
 5.9520000e+00   4.0815791e+01
 5.9574667e+00   4.0935733e+01
 5.9629333e+00   4.0837670e+01
 5.9684000e+00   4.0709929e+01
 5.9738667e+00   4.0888748e+01
 5.9793333e+00   4.1003954e+01
 5.9848000e+00   4.0959184e+01
 5.9902667e+00   4.0863337e+01
 5.9957333e+00   4.1274098e+01
 6.0012000e+00   4.1219245e+01
 6.0066667e+00   4.2121008e+01
 6.0121333e+00   4.2929233e+01
 6.0176000e+00   4.5411941e+01
 6.0230667e+00   4.8919347e+01
 6.0285333e+00   5.5517803e+01
 6.0340000e+00   6.5743018e+01
 6.0394667e+00   7.9175659e+01
 6.0449333e+00   9.4156932e+01
 6.0504000e+00   1.1326799e+02
 6.0558667e+00   1.2909359e+02
 6.0613333e+00   1.4193561e+02
 6.0668000e+00   1.4864708e+02
 6.0722667e+00   1.4942848e+02
 6.0777333e+00   1.4597035e+02
 6.0832000e+00   1.3425464e+02
 6.0886667e+00   1.1851769e+02
 6.0941333e+00   1.0242017e+02
 6.0996000e+00   8.5288919e+01
 6.1050667e+00   7.3319312e+01
 6.1105333e+00   6.1536122e+01
 6.1160000e+00   5.3545135e+01
 6.1214667e+00   4.7915620e+01
 6.1269333e+00   4.4334872e+01
 6.1324000e+00   4.2355987e+01
 6.1378667e+00   4.1249703e+01
 6.1433333e+00   4.0792874e+01
 6.1488000e+00   4.0114761e+01
 6.1542667e+00   3.9837732e+01
 6.1597333e+00   3.9560856e+01
 6.1652000e+00   3.9129584e+01
 6.1706667e+00   3.9192861e+01
 6.1761333e+00   3.8840251e+01
 6.1816000e+00   3.8761143e+01
 6.1870667e+00   3.8601901e+01
 6.1925333e+00   3.8552483e+01
 6.1980000e+00   3.8304901e+01
 6.2034667e+00   3.8374482e+01
 6.2089333e+00   3.8138456e+01
 6.2144000e+00   3.8155737e+01
 6.2198667e+00   3.8110482e+01
 6.2253333e+00   3.8204251e+01
 6.2308000e+00   3.7901056e+01
 6.2362667e+00   3.8234979e+01
 6.2417333e+00   3.7954101e+01
 6.2472000e+00   3.7850302e+01
 6.2526667e+00   3.8679312e+01
 6.2581333e+00   3.7942315e+01
 6.2636000e+00   4.1858877e+01
 6.2690667e+00   3.7635118e+01
 6.2745333e+00   3.9090739e+01
 6.2800000e+00   3.7470153e+01
 6.2854667e+00   3.7847495e+01
 6.2909333e+00   3.7496777e+01
 6.2964000e+00   3.7591950e+01
 6.3018667e+00   3.7322043e+01
 6.3073333e+00   3.7616868e+01
 6.3128000e+00   3.7378108e+01
 6.3182667e+00   3.7567398e+01
 6.3237333e+00   3.7557275e+01
 6.3292000e+00   3.7516264e+01
 6.3346667e+00   3.7661714e+01
 6.3401333e+00   3.7779569e+01
 6.3456000e+00   3.8080972e+01
 6.3510667e+00   3.8300180e+01
 6.3565333e+00   3.8860901e+01
 6.3620000e+00   3.9222960e+01
 6.3674667e+00   4.0518387e+01
 6.3729333e+00   4.1392138e+01
 6.3784000e+00   4.3830292e+01
 6.3838667e+00   4.5702093e+01
 6.3893333e+00   4.9369027e+01
 6.3948000e+00   5.2317608e+01
 6.4002667e+00   5.6624661e+01
 6.4057333e+00   5.8889072e+01
 6.4112000e+00   6.2002088e+01
 6.4166667e+00   6.2458957e+01
 6.4221333e+00   6.2656839e+01
 6.4276000e+00   6.1251211e+01
 6.4330667e+00   5.9391443e+01
 6.4385333e+00   5.6646815e+01
 6.4440000e+00   5.4054187e+01
 6.4494667e+00   5.0845222e+01
 6.4549333e+00   4.8722793e+01
 6.4604000e+00   4.5677673e+01
 6.4658667e+00   4.4018480e+01
 6.4713333e+00   4.2155670e+01
 6.4768000e+00   4.0520555e+01
 6.4822667e+00   3.9875136e+01
 6.4877333e+00   3.8754657e+01
 6.4932000e+00   3.8352751e+01
 6.4986667e+00   3.7929488e+01
 6.5041333e+00   3.7717970e+01
 6.5096000e+00   3.7441941e+01
 6.5150667e+00   3.7596132e+01
 6.5205333e+00   3.7309234e+01
 6.5260000e+00   3.7274932e+01
 6.5314667e+00   3.7334430e+01
 6.5369333e+00   3.7192960e+01
 6.5424000e+00   3.7092222e+01
 6.5478667e+00   3.7261455e+01
 6.5533333e+00   3.7222594e+01
 6.5588000e+00   3.7092352e+01
 6.5642667e+00   3.7274381e+01
 6.5697333e+00   3.6997159e+01
 6.5752000e+00   3.7165224e+01
 6.5806667e+00   3.6979534e+01
 6.5861333e+00   3.7222930e+01
 6.5916000e+00   3.6828581e+01
 6.5970667e+00   3.7204001e+01
 6.6025333e+00   3.6998912e+01
 6.6080000e+00   3.7073146e+01
 6.6134667e+00   3.7056964e+01
 6.6189333e+00   3.7125472e+01
 6.6244000e+00   3.6972899e+01
 6.6298667e+00   3.7118969e+01
 6.6353333e+00   3.7222515e+01
 6.6408000e+00   3.6955502e+01
 6.6462667e+00   3.7285972e+01
 6.6517333e+00   3.7039967e+01
 6.6572000e+00   3.7141450e+01
 6.6626667e+00   3.7091025e+01
 6.6681333e+00   3.7253413e+01
 6.6736000e+00   3.6962708e+01
 6.6790667e+00   3.7335477e+01
 6.6845333e+00   3.7017198e+01
 6.6900000e+00   3.7134511e+01
 6.6954667e+00   3.6943787e+01
 6.7009333e+00   3.7251336e+01
 6.7064000e+00   3.6754553e+01
 6.7118667e+00   3.7257290e+01
 6.7173333e+00   3.7106554e+01
 6.7228000e+00   3.7107992e+01
 6.7282667e+00   3.7225928e+01
 6.7337333e+00   3.7187284e+01
 6.7392000e+00   3.7197308e+01
 6.7446667e+00   3.7167017e+01
 6.7501333e+00   3.7331768e+01
 6.7556000e+00   3.7066279e+01
 6.7610667e+00   3.7328248e+01
 6.7665333e+00   3.7183068e+01
 6.7720000e+00   3.7385569e+01
 6.7774667e+00   3.7143528e+01
 6.7829333e+00   3.7579802e+01
 6.7884000e+00   3.7222530e+01
 6.7938667e+00   3.7469672e+01
 6.7993333e+00   3.7374639e+01
 6.8048000e+00   3.7502392e+01
 6.8102667e+00   3.7294338e+01
 6.8157333e+00   3.7715412e+01
 6.8212000e+00   3.7415829e+01
 6.8266667e+00   3.7671784e+01
 6.8321333e+00   3.7839780e+01
 6.8376000e+00   3.7505345e+01
 6.8430667e+00   3.7876446e+01
 6.8485333e+00   3.7821827e+01
 6.8540000e+00   3.7934912e+01
 6.8594667e+00   3.7820726e+01
 6.8649333e+00   3.8249890e+01
 6.8704000e+00   3.7871117e+01
 6.8758667e+00   3.8332528e+01
 6.8813333e+00   3.8154655e+01
 6.8868000e+00   3.8388285e+01
 6.8922667e+00   3.8255554e+01
 6.8977333e+00   3.8474951e+01
 6.9032000e+00   3.8285715e+01
 6.9086667e+00   3.8712136e+01
 6.9141333e+00   3.8391179e+01
 6.9196000e+00   3.8714285e+01
 6.9250667e+00   3.8526212e+01
 6.9305333e+00   3.8542050e+01
 6.9360000e+00   3.8863281e+01
 6.9414667e+00   3.8746749e+01
 6.9469333e+00   3.8908302e+01
 6.9524000e+00   3.8932494e+01
 6.9578667e+00   3.9135093e+01
 6.9633333e+00   3.9067299e+01
 6.9688000e+00   3.9482664e+01
 6.9742667e+00   3.9347988e+01
 6.9797333e+00   3.9649131e+01
 6.9852000e+00   3.9576222e+01
 6.9906667e+00   3.9851736e+01
 6.9961333e+00   3.9745354e+01
 7.0016000e+00   4.0040937e+01
 7.0070667e+00   4.0137530e+01
 7.0125333e+00   4.0287427e+01
 7.0180000e+00   4.0408305e+01
 7.0234667e+00   4.0539800e+01
 7.0289333e+00   4.0635269e+01
 7.0344000e+00   4.0693729e+01
 7.0398667e+00   4.1102248e+01
 7.0453333e+00   4.0998996e+01
 7.0508000e+00   4.1692941e+01
 7.0562667e+00   4.1620120e+01
 7.0617333e+00   4.2449967e+01
 7.0672000e+00   4.2956503e+01
 7.0726667e+00   4.4443400e+01
 7.0781333e+00   4.6215607e+01
 7.0836000e+00   5.0247537e+01
 7.0890667e+00   5.5544094e+01
 7.0945333e+00   6.4792392e+01
 7.1000000e+00   7.5229958e+01
 7.1054667e+00   8.9659014e+01
 7.1109333e+00   1.0444361e+02
 7.1164000e+00   1.1764875e+02
 7.1218667e+00   1.2894846e+02
 7.1273333e+00   1.3428543e+02
 7.1328000e+00   1.3799471e+02
 7.1382667e+00   1.3413607e+02
 7.1437333e+00   1.2728400e+02
 7.1492000e+00   1.1712039e+02
 7.1546667e+00   1.0584368e+02
 7.1601333e+00   9.3061173e+01
 7.1656000e+00   8.0308388e+01
 7.1710667e+00   6.9593277e+01
 7.1765333e+00   6.0240228e+01
 7.1820000e+00   5.3551121e+01
 7.1874667e+00   4.9507929e+01
 7.1929333e+00   4.6269058e+01
 7.1984000e+00   4.5109345e+01
 7.2038667e+00   4.3908294e+01
 7.2093333e+00   4.3271907e+01
 7.2148000e+00   4.2803127e+01
 7.2202667e+00   4.2701187e+01
 7.2257333e+00   4.2052552e+01
 7.2312000e+00   4.2191908e+01
 7.2366667e+00   4.2120992e+01
 7.2421333e+00   4.1559867e+01
 7.2476000e+00   4.2024416e+01
 7.2530667e+00   4.1707955e+01
 7.2585333e+00   4.1667660e+01
 7.2640000e+00   4.1558663e+01
 7.2694667e+00   4.1855011e+01
 7.2749333e+00   4.1344921e+01
 7.2804000e+00   4.1657043e+01
 7.2858667e+00   4.1512252e+01
 7.2913333e+00   4.1521505e+01
 7.2968000e+00   4.1451016e+01
 7.3022667e+00   4.1649006e+01
 7.3077333e+00   4.1330323e+01
 7.3132000e+00   4.1635892e+01
 7.3186667e+00   4.1420235e+01
 7.3241333e+00   4.1480274e+01
 7.3296000e+00   4.1504108e+01
 7.3350667e+00   4.1428332e+01
 7.3405333e+00   4.1469685e+01
 7.3460000e+00   4.1328500e+01
 7.3514667e+00   4.1659721e+01
 7.3569333e+00   4.1282183e+01
 7.3624000e+00   4.1560725e+01
 7.3678667e+00   4.1422278e+01
 7.3733333e+00   4.1598241e+01
 7.3788000e+00   4.1355854e+01
 7.3842667e+00   4.1772975e+01
 7.3897333e+00   4.1415028e+01
 7.3952000e+00   4.1691521e+01
 7.4006667e+00   4.1691770e+01
 7.4061333e+00   4.1726819e+01
 7.4116000e+00   4.1595215e+01
 7.4170667e+00   4.1906971e+01
 7.4225333e+00   4.1875874e+01
 7.4280000e+00   4.1715684e+01
 7.4334667e+00   4.2013377e+01
 7.4389333e+00   4.1739662e+01
 7.4444000e+00   4.1851953e+01
 7.4498667e+00   4.1968802e+01
 7.4553333e+00   4.2018700e+01
 7.4608000e+00   4.1799453e+01
 7.4662667e+00   4.2330653e+01
 7.4717333e+00   4.1854577e+01
 7.4772000e+00   4.2268253e+01
 7.4826667e+00   4.1969898e+01
 7.4881333e+00   4.2424490e+01
 7.4936000e+00   4.1991646e+01
 7.4990667e+00   4.2564393e+01
 7.5045333e+00   4.2114153e+01
 7.5100000e+00   4.2470769e+01
 7.5154667e+00   4.2294672e+01
 7.5209333e+00   4.2484624e+01
 7.5264000e+00   4.2332690e+01
 7.5318667e+00   4.2517213e+01
 7.5373333e+00   4.2442363e+01
 7.5428000e+00   4.2511652e+01
 7.5482667e+00   4.2680404e+01
 7.5537333e+00   4.2597773e+01
 7.5592000e+00   4.2727271e+01
 7.5646667e+00   4.2629040e+01
 7.5701333e+00   4.2910844e+01
 7.5756000e+00   4.2511072e+01
 7.5810667e+00   4.3156339e+01
 7.5865333e+00   4.2769520e+01
 7.5920000e+00   4.3037201e+01
 7.5974667e+00   4.3035674e+01
 7.6029333e+00   4.3221714e+01
 7.6084000e+00   4.2907025e+01
 7.6138667e+00   4.3428858e+01
 7.6193333e+00   4.3228662e+01
 7.6248000e+00   4.3330533e+01
 7.6302667e+00   4.3535054e+01
 7.6357333e+00   4.3504090e+01
 7.6412000e+00   4.3384908e+01
 7.6466667e+00   4.3713953e+01
 7.6521333e+00   4.3772767e+01
 7.6576000e+00   4.3582717e+01
 7.6630667e+00   4.3959814e+01
 7.6685333e+00   4.3871007e+01
 7.6740000e+00   4.4008611e+01
 7.6794667e+00   4.4174879e+01
 7.6849333e+00   4.4383987e+01
 7.6904000e+00   4.4150124e+01
 7.6958667e+00   4.4833792e+01
 7.7013333e+00   4.4462261e+01
 7.7068000e+00   4.4689075e+01
 7.7122667e+00   4.4906470e+01
 7.7177333e+00   4.5030701e+01
 7.7232000e+00   4.4909031e+01
 7.7286667e+00   4.5395160e+01
 7.7341333e+00   4.5269826e+01
 7.7396000e+00   4.5440772e+01
 7.7450667e+00   4.5609354e+01
 7.7505333e+00   4.5846804e+01
 7.7560000e+00   4.5875333e+01
 7.7614667e+00   4.6178896e+01
 7.7669333e+00   4.6501772e+01
 7.7724000e+00   4.6653990e+01
 7.7778667e+00   4.7123241e+01
 7.7833333e+00   4.7493346e+01
 7.7888000e+00   4.8335349e+01
 7.7942667e+00   4.8845852e+01
 7.7997333e+00   5.0502972e+01
 7.8052000e+00   5.2386085e+01
 7.8106667e+00   5.6233246e+01
 7.8161333e+00   6.2079035e+01
 7.8216000e+00   7.2228671e+01
 7.8270667e+00   8.5145319e+01
 7.8325333e+00   1.0270817e+02
 7.8380000e+00   1.2402240e+02
 7.8434667e+00   1.4293768e+02
 7.8489333e+00   1.6022804e+02
 7.8544000e+00   1.7197188e+02
 7.8598667e+00   1.8032882e+02
 7.8653333e+00   1.7752815e+02
 7.8708000e+00   1.7154942e+02
 7.8762667e+00   1.5795887e+02
 7.8817333e+00   1.3968628e+02
 7.8872000e+00   1.2307977e+02
 7.8926667e+00   1.0284163e+02
 7.8981333e+00   8.8937271e+01
 7.9036000e+00   7.5441645e+01
 7.9090667e+00   6.6383325e+01
 7.9145333e+00   6.0085072e+01
 7.9200000e+00   5.5669218e+01
 7.9254667e+00   5.3384060e+01
 7.9309333e+00   5.1577801e+01
 7.9364000e+00   5.0868722e+01
 7.9418667e+00   4.9662547e+01
 7.9473333e+00   4.9813922e+01
 7.9528000e+00   4.8936534e+01
 7.9582667e+00   4.9125883e+01
 7.9637333e+00   4.8534613e+01
 7.9692000e+00   4.8687535e+01
 7.9746667e+00   4.8177424e+01
 7.9801333e+00   4.8441458e+01
 7.9856000e+00   4.8153259e+01
 7.9910667e+00   4.8142680e+01
 7.9965333e+00   4.8076315e+01
 8.0020000e+00   4.7995214e+01
 8.0074667e+00   4.8086371e+01
 8.0129333e+00   4.7808741e+01
 8.0184000e+00   4.8324158e+01
 8.0238667e+00   4.7819638e+01
 8.0293333e+00   4.8568161e+01
 8.0348000e+00   4.7923817e+01
 8.0402667e+00   4.8706526e+01
 8.0457333e+00   4.8079809e+01
 8.0512000e+00   4.8910508e+01
 8.0566667e+00   4.8414274e+01
 8.0621333e+00   4.9204211e+01
 8.0676000e+00   4.8903203e+01
 8.0730667e+00   4.9642339e+01
 8.0785333e+00   4.9884948e+01
 8.0840000e+00   5.0617199e+01
 8.0894667e+00   5.2694508e+01
 8.0949333e+00   5.3907738e+01
 8.1004000e+00   6.5705176e+01
 8.1058667e+00   5.7767435e+01
 8.1113333e+00   8.1325944e+01
 8.1168000e+00   8.1219656e+01
 8.1222667e+00   1.0330263e+02
 8.1277333e+00   9.4454589e+01
 8.1332000e+00   1.3379249e+02
 8.1386667e+00   1.3037327e+02
 8.1441333e+00   1.1467352e+02
 8.1496000e+00   1.0056017e+02
 8.1550667e+00   1.2170658e+02
 8.1605333e+00   9.9440840e+01
 8.1660000e+00   1.4224974e+02
 8.1714667e+00   1.0438518e+02
 8.1769333e+00   1.2328460e+02
 8.1824000e+00   1.1087023e+02
 8.1878667e+00   1.0049032e+02
 8.1933333e+00   1.0781809e+02
 8.1988000e+00   9.1503357e+01
 8.2042667e+00   1.1609721e+02
 8.2097333e+00   8.4493601e+01
 8.2152000e+00   8.7341303e+01
 8.2206667e+00   6.9862839e+01
 8.2261333e+00   6.5619892e+01
 8.2316000e+00   6.3244542e+01
 8.2370667e+00   6.2993631e+01
 8.2425333e+00   6.1959653e+01
 8.2480000e+00   6.0849789e+01
 8.2534667e+00   5.9182590e+01
 8.2589333e+00   5.7995711e+01
 8.2644000e+00   5.5707151e+01
 8.2698667e+00   5.4810056e+01
 8.2753333e+00   5.2581046e+01
 8.2808000e+00   5.2252300e+01
 8.2862667e+00   5.0856258e+01
 8.2917333e+00   5.0887441e+01
 8.2972000e+00   5.0063361e+01
 8.3026667e+00   5.0281567e+01
 8.3081333e+00   4.9843081e+01
 8.3136000e+00   5.0093215e+01
 8.3190667e+00   4.9777385e+01
 8.3245333e+00   4.9957617e+01
 8.3300000e+00   4.9880616e+01
 8.3354667e+00   5.0082120e+01
 8.3409333e+00   5.0309444e+01
 8.3464000e+00   5.0602193e+01
 8.3518667e+00   5.1293958e+01
 8.3573333e+00   5.1958873e+01
 8.3628000e+00   5.4288622e+01
 8.3682667e+00   5.6471036e+01
 8.3737333e+00   6.2458104e+01
 8.3792000e+00   6.7870869e+01
 8.3846667e+00   7.8735520e+01
 8.3901333e+00   8.8330116e+01
 8.3956000e+00   1.0067542e+02
 8.4010667e+00   1.1156116e+02
 8.4065333e+00   1.2256997e+02
 8.4120000e+00   1.2955886e+02
 8.4174667e+00   1.3300281e+02
 8.4229333e+00   1.3102456e+02
 8.4284000e+00   1.2510866e+02
 8.4338667e+00   1.1386269e+02
 8.4393333e+00   1.0207541e+02
 8.4448000e+00   8.8706572e+01
 8.4502667e+00   7.7954631e+01
 8.4557333e+00   6.9233178e+01
 8.4612000e+00   6.2532401e+01
 8.4666667e+00   5.8675522e+01
 8.4721333e+00   5.5669717e+01
 8.4776000e+00   5.5318090e+01
 8.4830667e+00   5.4932002e+01
 8.4885333e+00   5.7421376e+01
 8.4940000e+00   5.9271124e+01
 8.4994667e+00   6.5010124e+01
 8.5049333e+00   6.9425349e+01
 8.5104000e+00   7.7905997e+01
 8.5158667e+00   8.3605679e+01
 8.5213333e+00   9.1591843e+01
 8.5268000e+00   9.6368828e+01
 8.5322667e+00   1.0173859e+02
 8.5377333e+00   1.0311022e+02
 8.5432000e+00   1.0356857e+02
 8.5486667e+00   9.8946958e+01
 8.5541333e+00   9.3737783e+01
 8.5596000e+00   8.4357576e+01
 8.5650667e+00   7.6499784e+01
 8.5705333e+00   6.8089328e+01
 8.5760000e+00   6.1470865e+01
 8.5814667e+00   5.7674901e+01
 8.5869333e+00   5.3822350e+01
 8.5924000e+00   5.1818428e+01
 8.5978667e+00   5.0283102e+01
 8.6033333e+00   4.9792914e+01
 8.6088000e+00   4.8923844e+01
 8.6142667e+00   4.8928355e+01
 8.6197333e+00   4.8258219e+01
 8.6252000e+00   4.8429201e+01
 8.6306667e+00   4.7815732e+01
 8.6361333e+00   4.7883770e+01
 8.6416000e+00   4.7436425e+01
 8.6470667e+00   4.7655306e+01
 8.6525333e+00   4.7114142e+01
 8.6580000e+00   4.7210132e+01
 8.6634667e+00   4.6833253e+01
 8.6689333e+00   4.6983823e+01
 8.6744000e+00   4.6682736e+01
 8.6798667e+00   4.6630393e+01
 8.6853333e+00   4.6503400e+01
 8.6908000e+00   4.6412163e+01
 8.6962667e+00   4.6269740e+01
 8.7017333e+00   4.6096313e+01
 8.7072000e+00   4.6132102e+01
 8.7126667e+00   4.5892201e+01
 8.7181333e+00   4.6089583e+01
 8.7236000e+00   4.5595732e+01
 8.7290667e+00   4.5979014e+01
 8.7345333e+00   4.5508982e+01
 8.7400000e+00   4.5764274e+01
 8.7454667e+00   4.5266859e+01
 8.7509333e+00   4.5633271e+01
 8.7564000e+00   4.5094218e+01
 8.7618667e+00   4.5494026e+01
 8.7673333e+00   4.4960007e+01
 8.7728000e+00   4.5394979e+01
 8.7782667e+00   4.4793697e+01
 8.7837333e+00   4.5208567e+01
 8.7892000e+00   4.4721943e+01
 8.7946667e+00   4.4903219e+01
 8.8001333e+00   4.4683920e+01
 8.8056000e+00   4.4723992e+01
 8.8110667e+00   4.4554182e+01
 8.8165333e+00   4.4702168e+01
 8.8220000e+00   4.4533526e+01
 8.8274667e+00   4.4506340e+01
 8.8329333e+00   4.4548735e+01
 8.8384000e+00   4.4254353e+01
 8.8438667e+00   4.4565406e+01
 8.8493333e+00   4.4103813e+01
 8.8548000e+00   4.4483589e+01
 8.8602667e+00   4.4178749e+01
 8.8657333e+00   4.4492775e+01
 8.8712000e+00   4.4175773e+01
 8.8766667e+00   4.4824157e+01
 8.8821333e+00   4.4869130e+01
 8.8876000e+00   4.5927251e+01
 8.8930667e+00   4.6527098e+01
 8.8985333e+00   4.8373127e+01
 8.9040000e+00   4.9601698e+01
 8.9094667e+00   5.2365525e+01
 8.9149333e+00   5.3696354e+01
 8.9204000e+00   5.5642982e+01
 8.9258667e+00   5.6706457e+01
 8.9313333e+00   5.6726608e+01
 8.9368000e+00   5.6324468e+01
 8.9422667e+00   5.4631925e+01
 8.9477333e+00   5.2707894e+01
 8.9532000e+00   5.0085538e+01
 8.9586667e+00   4.8471282e+01
 8.9641333e+00   4.6485129e+01
 8.9696000e+00   4.5704699e+01
 8.9750667e+00   4.4581407e+01
 8.9805333e+00   4.4124859e+01
 8.9860000e+00   4.3374642e+01
 8.9914667e+00   4.3378709e+01
 8.9969333e+00   4.2787921e+01
 9.0024000e+00   4.3030212e+01
 9.0078667e+00   4.2649103e+01
 9.0133333e+00   4.2982649e+01
 9.0188000e+00   4.2444345e+01
 9.0242667e+00   4.2944157e+01
 9.0297333e+00   4.2539372e+01
 9.0352000e+00   4.2925230e+01
 9.0406667e+00   4.2857728e+01
 9.0461333e+00   4.3512785e+01
 9.0516000e+00   4.3576636e+01
 9.0570667e+00   4.4589127e+01
 9.0625333e+00   4.5258245e+01
 9.0680000e+00   4.5959779e+01
 9.0734667e+00   4.7001550e+01
 9.0789333e+00   4.7604195e+01
 9.0844000e+00   4.8279586e+01
 9.0898667e+00   4.8361883e+01
 9.0953333e+00   4.8395502e+01
 9.1008000e+00   4.7535448e+01
 9.1062667e+00   4.7324383e+01
 9.1117333e+00   4.6018684e+01
 9.1172000e+00   4.5323577e+01
 9.1226667e+00   4.4157826e+01
 9.1281333e+00   4.3741062e+01
 9.1336000e+00   4.2701763e+01
 9.1390667e+00   4.2630142e+01
 9.1445333e+00   4.1853233e+01
 9.1500000e+00   4.1960011e+01
 9.1554667e+00   4.1216838e+01
 9.1609333e+00   4.1497371e+01
 9.1664000e+00   4.1040871e+01
 9.1718667e+00   4.1161429e+01
 9.1773333e+00   4.0776196e+01
 9.1828000e+00   4.1091524e+01
 9.1882667e+00   4.0638835e+01
 9.1937333e+00   4.0720945e+01
 9.1992000e+00   4.0746754e+01
 9.2046667e+00   4.0593763e+01
 9.2101333e+00   4.0561492e+01
 9.2156000e+00   4.0465169e+01
 9.2210667e+00   4.0471828e+01
 9.2265333e+00   4.0261928e+01
 9.2320000e+00   4.0590127e+01
 9.2374667e+00   4.0232247e+01
 9.2429333e+00   4.0438683e+01
 9.2484000e+00   4.0140828e+01
 9.2538667e+00   4.0366590e+01
 9.2593333e+00   3.9928020e+01
 9.2648000e+00   4.0397496e+01
 9.2702667e+00   3.9926474e+01
 9.2757333e+00   4.0313939e+01
 9.2812000e+00   3.9831371e+01
 9.2866667e+00   4.0433414e+01
 9.2921333e+00   3.9947535e+01
 9.2976000e+00   4.0238937e+01
 9.3030667e+00   3.9949974e+01
 9.3085333e+00   4.0307947e+01
 9.3140000e+00   4.0083347e+01
 9.3194667e+00   4.0614415e+01
 9.3249333e+00   4.0901275e+01
 9.3304000e+00   4.1436831e+01
 9.3358667e+00   4.2424249e+01
 9.3413333e+00   4.3727280e+01
 9.3468000e+00   4.5325808e+01
 9.3522667e+00   4.6834680e+01
 9.3577333e+00   4.8923682e+01
 9.3632000e+00   4.9933971e+01
 9.3686667e+00   5.1448431e+01
 9.3741333e+00   5.1601423e+01
 9.3796000e+00   5.1798676e+01
 9.3850667e+00   5.0385818e+01
 9.3905333e+00   4.9636565e+01
 9.3960000e+00   4.7207649e+01
 9.4014667e+00   4.5791050e+01
 9.4069333e+00   4.4119595e+01
 9.4124000e+00   4.2785389e+01
 9.4178667e+00   4.1597642e+01
 9.4233333e+00   4.1304528e+01
 9.4288000e+00   4.0379977e+01
 9.4342667e+00   4.0216506e+01
 9.4397333e+00   4.0163353e+01
 9.4452000e+00   4.0217738e+01
 9.4506667e+00   3.9765913e+01
 9.4561333e+00   4.0122219e+01
 9.4616000e+00   4.0116081e+01
 9.4670667e+00   4.0100715e+01
 9.4725333e+00   4.0438658e+01
 9.4780000e+00   4.0572354e+01
 9.4834667e+00   4.1055664e+01
 9.4889333e+00   4.1084970e+01
 9.4944000e+00   4.5074299e+01
 9.4998667e+00   4.2580502e+01
 9.5053333e+00   6.1015563e+01
 9.5108000e+00   5.3251815e+01
 9.5162667e+00   7.1803123e+01
 9.5217333e+00   6.4978152e+01
 9.5272000e+00   7.7094738e+01
 9.5326667e+00   8.3345133e+01
 9.5381333e+00   8.8830725e+01
 9.5436000e+00   9.7795680e+01
 9.5490667e+00   1.1161820e+02
 9.5545333e+00   1.1541795e+02
 9.5600000e+00   1.3470004e+02
 9.5654667e+00   1.1583812e+02
 9.5709333e+00   1.1985081e+02
 9.5764000e+00   1.0484427e+02
 9.5818667e+00   1.1701298e+02
 9.5873333e+00   9.3656566e+01
 9.5928000e+00   9.3727841e+01
 9.5982667e+00   9.9441132e+01
 9.6037333e+00   7.3972907e+01
 9.6092000e+00   8.0568932e+01
 9.6146667e+00   5.5971060e+01
 9.6201333e+00   5.3313279e+01
 9.6256000e+00   4.6337336e+01
 9.6310667e+00   4.3725350e+01
 9.6365333e+00   4.0658554e+01
 9.6420000e+00   4.0692153e+01
 9.6474667e+00   3.9555753e+01
 9.6529333e+00   3.9610540e+01
 9.6584000e+00   3.8746037e+01
 9.6638667e+00   3.9457317e+01
 9.6693333e+00   3.8396807e+01
 9.6748000e+00   3.9159299e+01
 9.6802667e+00   3.8452924e+01
 9.6857333e+00   3.8784796e+01
 9.6912000e+00   3.8071939e+01
 9.6966667e+00   3.8474797e+01
 9.7021333e+00   3.7891613e+01
 9.7076000e+00   3.8273983e+01
 9.7130667e+00   3.7790271e+01
 9.7185333e+00   3.7863175e+01
 9.7240000e+00   3.7526075e+01
 9.7294667e+00   3.7832648e+01
 9.7349333e+00   3.7386322e+01
 9.7404000e+00   3.7426591e+01
 9.7458667e+00   3.7303651e+01
 9.7513333e+00   3.7223031e+01
 9.7568000e+00   3.7094841e+01
 9.7622667e+00   3.7087792e+01
 9.7677333e+00   3.7219847e+01
 9.7732000e+00   3.6835457e+01
 9.7786667e+00   3.7378915e+01
 9.7841333e+00   3.7087561e+01
 9.7896000e+00   3.7863906e+01
 9.7950667e+00   3.7905021e+01
 9.8005333e+00   3.9260514e+01
 9.8060000e+00   3.9997956e+01
 9.8114667e+00   4.1824197e+01
 9.8169333e+00   4.2902683e+01
 9.8224000e+00   4.4742785e+01
 9.8278667e+00   4.5533327e+01
 9.8333333e+00   4.6953891e+01
 9.8388000e+00   4.6570787e+01
 9.8442667e+00   4.6934309e+01
 9.8497333e+00   4.5391523e+01
 9.8552000e+00   4.4218399e+01
 9.8606667e+00   4.2552895e+01
 9.8661333e+00   4.1084599e+01
 9.8716000e+00   3.9761919e+01
 9.8770667e+00   3.8852146e+01
 9.8825333e+00   3.8015835e+01
 9.8880000e+00   3.7537450e+01
 9.8934667e+00   3.7362974e+01
 9.8989333e+00   3.6953683e+01
 9.9044000e+00   3.6887205e+01
 9.9098667e+00   3.6976155e+01
 9.9153333e+00   3.7322351e+01
 9.9208000e+00   3.6979290e+01
 9.9262667e+00   3.7911737e+01
 9.9317333e+00   3.7748367e+01
 9.9372000e+00   3.9106416e+01
 9.9426667e+00   3.9913649e+01
 9.9481333e+00   4.3016513e+01
 9.9536000e+00   4.6966902e+01
 9.9590667e+00   5.1330601e+01
 9.9645333e+00   5.3243337e+01
 9.9700000e+00   6.7426974e+01
 9.9754667e+00   6.5168935e+01
 9.9809333e+00   7.6749715e+01
 9.9864000e+00   9.0453247e+01
 9.9918667e+00   9.5481474e+01
 9.9973333e+00   8.7444517e+01
 1.0002800e+01   7.6629546e+01
 1.0008267e+01   9.3507605e+01
 1.0013733e+01   6.8026948e+01
 1.0019200e+01   8.6171254e+01
 1.0024667e+01   6.3820370e+01
 1.0030133e+01   8.2733534e+01
 1.0035600e+01   7.2887025e+01
 1.0041067e+01   6.4725157e+01
 1.0046533e+01   6.6176739e+01
 1.0052000e+01   5.2328748e+01
 1.0057467e+01   4.1524535e+01
 1.0062933e+01   4.0618992e+01
 1.0068400e+01   3.8812885e+01
 1.0073867e+01   3.7532512e+01
 1.0079333e+01   3.7167891e+01
 1.0084800e+01   3.7173403e+01
 1.0090267e+01   3.6451191e+01
 1.0095733e+01   3.6761939e+01
 1.0101200e+01   3.6351323e+01
 1.0106667e+01   3.6890003e+01
 1.0112133e+01   3.6418224e+01
 1.0117600e+01   3.6971878e+01
 1.0123067e+01   3.7133049e+01
 1.0128533e+01   3.7506952e+01
 1.0134000e+01   3.7920783e+01
 1.0139467e+01   3.8461176e+01
 1.0144933e+01   3.9029227e+01
 1.0150400e+01   3.9588368e+01
 1.0155867e+01   3.9997770e+01
 1.0161333e+01   4.0329743e+01
 1.0166800e+01   4.0377256e+01
 1.0172267e+01   4.0341384e+01
 1.0177733e+01   4.0094410e+01
 1.0183200e+01   3.9531801e+01
 1.0188667e+01   3.8934094e+01
 1.0194133e+01   3.8183097e+01
 1.0199600e+01   3.7665895e+01
 1.0205067e+01   3.6736457e+01
 1.0210533e+01   3.6421746e+01
 1.0216000e+01   3.5674652e+01
 1.0221467e+01   3.5664620e+01
 1.0226933e+01   3.4901011e+01
 1.0232400e+01   3.5043341e+01
 1.0237867e+01   3.4561572e+01
 1.0243333e+01   3.4600973e+01
 1.0248800e+01   3.4263635e+01
 1.0254267e+01   3.4371810e+01
 1.0259733e+01   3.4143524e+01
 1.0265200e+01   3.4310305e+01
 1.0270667e+01   3.4083647e+01
 1.0276133e+01   3.4019468e+01
 1.0281600e+01   3.4090652e+01
 1.0287067e+01   3.4063443e+01
 1.0292533e+01   3.3963984e+01
 1.0298000e+01   3.4006353e+01
 1.0303467e+01   3.3965305e+01
 1.0308933e+01   3.3994965e+01
 1.0314400e+01   3.3825611e+01
 1.0319867e+01   3.3915495e+01
 1.0325333e+01   3.3876655e+01
 1.0330800e+01   3.3903846e+01
 1.0336267e+01   3.3740246e+01
 1.0341733e+01   3.3707563e+01
 1.0347200e+01   3.3895821e+01
 1.0352667e+01   3.3707057e+01
 1.0358133e+01   3.3871897e+01
 1.0363600e+01   3.3591691e+01
 1.0369067e+01   3.3976660e+01
 1.0374533e+01   3.3722410e+01
 1.0380000e+01   3.3857310e+01
 1.0385467e+01   3.3640055e+01
 1.0390933e+01   3.3862021e+01
 1.0396400e+01   3.3616825e+01
 1.0401867e+01   3.3873811e+01
 1.0407333e+01   3.3735276e+01
 1.0412800e+01   3.3899143e+01
 1.0418267e+01   3.3997949e+01
 1.0423733e+01   3.4023389e+01
 1.0429200e+01   3.5633799e+01
 1.0434667e+01   3.4178612e+01
 1.0440133e+01   3.4093123e+01
 1.0445600e+01   3.3810259e+01
 1.0451067e+01   3.3730935e+01
 1.0456533e+01   3.3713424e+01
 1.0462000e+01   3.3728837e+01
 1.0467467e+01   3.3764451e+01
 1.0472933e+01   3.3728710e+01
 1.0478400e+01   3.3660054e+01
 1.0483867e+01   3.3667214e+01
 1.0489333e+01   3.3606377e+01
 1.0494800e+01   3.3757238e+01
 1.0500267e+01   3.3659231e+01
 1.0505733e+01   3.3734134e+01
 1.0511200e+01   3.3672021e+01
 1.0516667e+01   3.3931702e+01
 1.0522133e+01   3.3705500e+01
 1.0527600e+01   3.3949489e+01
 1.0533067e+01   3.3838084e+01
 1.0538533e+01   3.4034011e+01
 1.0544000e+01   3.3891993e+01
 1.0549467e+01   3.4116903e+01
 1.0554933e+01   3.4077686e+01
 1.0560400e+01   3.4337423e+01
 1.0565867e+01   3.4431394e+01
 1.0571333e+01   3.4916902e+01
 1.0576800e+01   3.5465143e+01
 1.0582267e+01   3.6528577e+01
 1.0587733e+01   3.7858589e+01
 1.0593200e+01   3.9719441e+01
 1.0598667e+01   4.2022060e+01
 1.0604133e+01   4.4577220e+01
 1.0609600e+01   4.7112371e+01
 1.0615067e+01   4.9137075e+01
 1.0620533e+01   5.0865792e+01
 1.0626000e+01   5.1219157e+01
 1.0631467e+01   5.2256880e+01
 1.0636933e+01   5.0037975e+01
 1.0642400e+01   5.3271754e+01
 1.0647867e+01   4.5716590e+01
 1.0653333e+01   4.4616895e+01
 1.0658800e+01   4.1151875e+01
 1.0664267e+01   3.9173729e+01
 1.0669733e+01   3.7321418e+01
 1.0675200e+01   3.6089753e+01
 1.0680667e+01   3.5311580e+01
 1.0686133e+01   3.4802833e+01
 1.0691600e+01   3.4470187e+01
 1.0697067e+01   3.4459903e+01
 1.0702533e+01   3.4459414e+01
 1.0708000e+01   3.4235770e+01
 1.0713467e+01   3.4265577e+01
 1.0718933e+01   3.4311919e+01
 1.0724400e+01   3.4019056e+01
 1.0729867e+01   3.4082328e+01
 1.0735333e+01   3.4022788e+01
 1.0740800e+01   3.3991796e+01
 1.0746267e+01   3.3839844e+01
 1.0751733e+01   3.3850256e+01
 1.0757200e+01   3.3808157e+01
 1.0762667e+01   3.3850309e+01
 1.0768133e+01   3.3798346e+01
 1.0773600e+01   3.3819519e+01
 1.0779067e+01   3.3571950e+01
 1.0784533e+01   3.3825547e+01
 1.0790000e+01   3.3574493e+01
 1.0795467e+01   3.3809524e+01
 1.0800933e+01   3.3608917e+01
 1.0806400e+01   3.3970404e+01
 1.0811867e+01   3.3549078e+01
 1.0817333e+01   3.3969177e+01
 1.0822800e+01   3.3660517e+01
 1.0828267e+01   3.4012181e+01
 1.0833733e+01   3.3540548e+01
 1.0839200e+01   3.4244506e+01
 1.0844667e+01   3.3704619e+01
 1.0850133e+01   3.4190857e+01
 1.0855600e+01   3.4128165e+01
 1.0861067e+01   3.4325574e+01
 1.0866533e+01   3.4554958e+01
 1.0872000e+01   3.4934020e+01
 1.0877467e+01   3.5565968e+01
 1.0882933e+01   3.5899308e+01
 1.0888400e+01   3.6666282e+01
 1.0893867e+01   3.6970062e+01
 1.0899333e+01   3.7617733e+01
 1.0904800e+01   3.7626762e+01
 1.0910267e+01   3.8156806e+01
 1.0915733e+01   3.7649843e+01
 1.0921200e+01   3.7666134e+01
 1.0926667e+01   3.7082819e+01
 1.0932133e+01   3.6868696e+01
 1.0937600e+01   3.6096005e+01
 1.0943067e+01   3.5840656e+01
 1.0948533e+01   3.5369254e+01
 1.0954000e+01   3.5316853e+01
 1.0959467e+01   3.4748214e+01
 1.0964933e+01   3.4847681e+01
 1.0970400e+01   3.4484670e+01
 1.0975867e+01   3.4722625e+01
 1.0981333e+01   3.4266927e+01
 1.0986800e+01   3.4655446e+01
 1.0992267e+01   3.4366681e+01
 1.0997733e+01   3.4727228e+01
 1.1003200e+01   3.4390812e+01
 1.1008667e+01   3.4696353e+01
 1.1014133e+01   3.4460259e+01
 1.1019600e+01   3.4988722e+01
 1.1025067e+01   3.4460304e+01
 1.1030533e+01   3.4753896e+01
 1.1036000e+01   3.4827919e+01
 1.1041467e+01   3.4818305e+01
 1.1046933e+01   3.4799972e+01
 1.1052400e+01   3.5072459e+01
 1.1057867e+01   3.5049308e+01
 1.1063333e+01   3.5139004e+01
 1.1068800e+01   3.5352475e+01
 1.1074267e+01   3.5736690e+01
 1.1079733e+01   3.6108439e+01
 1.1085200e+01   3.6714045e+01
 1.1090667e+01   3.8047513e+01
 1.1096133e+01   3.9429340e+01
 1.1101600e+01   4.1819309e+01
 1.1107067e+01   4.4508636e+01
 1.1112533e+01   4.7663570e+01
 1.1118000e+01   5.0360935e+01
 1.1123467e+01   5.3716778e+01
 1.1128933e+01   5.5083992e+01
 1.1134400e+01   5.6808174e+01
 1.1139867e+01   5.6775068e+01
 1.1145333e+01   5.6164382e+01
 1.1150800e+01   5.3678204e+01
 1.1156267e+01   5.1532003e+01
 1.1161733e+01   4.8186295e+01
 1.1167200e+01   4.5602892e+01
 1.1172667e+01   4.2236706e+01
 1.1178133e+01   4.0636034e+01
 1.1183600e+01   3.8387042e+01
 1.1189067e+01   3.7309528e+01
 1.1194533e+01   3.6397928e+01
