PWDR ff_004331_sum_norm_dc_0.tif Azm= 352.fxye Bank 1
2-Theta Angle (Degrees)
Intensity
       1500
 3.0000000e+00   4.3787257e+01
 3.0054667e+00   4.3515874e+01
 3.0109333e+00   4.3363008e+01
 3.0164000e+00   4.3199791e+01
 3.0218667e+00   4.2958054e+01
 3.0273333e+00   4.2885828e+01
 3.0328000e+00   4.2679078e+01
 3.0382667e+00   4.2730713e+01
 3.0437333e+00   4.2389282e+01
 3.0492000e+00   4.2535903e+01
 3.0546667e+00   4.2269103e+01
 3.0601333e+00   4.1999606e+01
 3.0656000e+00   4.1960250e+01
 3.0710667e+00   4.1711471e+01
 3.0765333e+00   4.1392174e+01
 3.0820000e+00   4.1277539e+01
 3.0874667e+00   4.0755153e+01
 3.0929333e+00   4.0631727e+01
 3.0984000e+00   4.0371774e+01
 3.1038667e+00   4.0178765e+01
 3.1093333e+00   3.9918891e+01
 3.1148000e+00   3.9644521e+01
 3.1202667e+00   3.9550768e+01
 3.1257333e+00   3.9346352e+01
 3.1312000e+00   3.9171443e+01
 3.1366667e+00   3.8982224e+01
 3.1421333e+00   3.8882545e+01
 3.1476000e+00   3.8642033e+01
 3.1530667e+00   3.8620334e+01
 3.1585333e+00   3.8284572e+01
 3.1640000e+00   3.8290451e+01
 3.1694667e+00   3.8122915e+01
 3.1749333e+00   3.7897515e+01
 3.1804000e+00   3.7813361e+01
 3.1858667e+00   3.7617417e+01
 3.1913333e+00   3.7617620e+01
 3.1968000e+00   3.7418121e+01
 3.2022667e+00   3.7344499e+01
 3.2077333e+00   3.7053393e+01
 3.2132000e+00   3.6958456e+01
 3.2186667e+00   3.6832958e+01
 3.2241333e+00   3.6664804e+01
 3.2296000e+00   3.6514435e+01
 3.2350667e+00   3.6441106e+01
 3.2405333e+00   3.6358076e+01
 3.2460000e+00   3.6229174e+01
 3.2514667e+00   3.6108803e+01
 3.2569333e+00   3.6014369e+01
 3.2624000e+00   3.5796633e+01
 3.2678667e+00   3.5766023e+01
 3.2733333e+00   3.5619428e+01
 3.2788000e+00   3.5415371e+01
 3.2842667e+00   3.5564169e+01
 3.2897333e+00   3.5314587e+01
 3.2952000e+00   3.5383902e+01
 3.3006667e+00   3.4999118e+01
 3.3061333e+00   3.5068123e+01
 3.3116000e+00   3.4871237e+01
 3.3170667e+00   3.4933719e+01
 3.3225333e+00   3.4735106e+01
 3.3280000e+00   3.4790668e+01
 3.3334667e+00   3.4499443e+01
 3.3389333e+00   3.4504455e+01
 3.3444000e+00   3.4372212e+01
 3.3498667e+00   3.4263658e+01
 3.3553333e+00   3.4230778e+01
 3.3608000e+00   3.4063451e+01
 3.3662667e+00   3.4121201e+01
 3.3717333e+00   3.3892770e+01
 3.3772000e+00   3.3832309e+01
 3.3826667e+00   3.3821709e+01
 3.3881333e+00   3.3685199e+01
 3.3936000e+00   3.3652207e+01
 3.3990667e+00   3.3590354e+01
 3.4045333e+00   3.3413946e+01
 3.4100000e+00   3.3454724e+01
 3.4154667e+00   3.3202535e+01
 3.4209333e+00   3.3198865e+01
 3.4264000e+00   3.3164273e+01
 3.4318667e+00   3.3059887e+01
 3.4373333e+00   3.3044253e+01
 3.4428000e+00   3.2935089e+01
 3.4482667e+00   3.2960608e+01
 3.4537333e+00   3.2848654e+01
 3.4592000e+00   3.2722201e+01
 3.4646667e+00   3.2746122e+01
 3.4701333e+00   3.2650765e+01
 3.4756000e+00   3.2630888e+01
 3.4810667e+00   3.2532905e+01
 3.4865333e+00   3.2424391e+01
 3.4920000e+00   3.2419865e+01
 3.4974667e+00   3.2369441e+01
 3.5029333e+00   3.2293507e+01
 3.5084000e+00   3.2420665e+01
 3.5138667e+00   3.2333432e+01
 3.5193333e+00   3.2383208e+01
 3.5248000e+00   3.2277131e+01
 3.5302667e+00   3.2353766e+01
 3.5357333e+00   3.2267009e+01
 3.5412000e+00   3.2279437e+01
 3.5466667e+00   3.2192985e+01
 3.5521333e+00   3.2167784e+01
 3.5576000e+00   3.2278757e+01
 3.5630667e+00   3.2298533e+01
 3.5685333e+00   3.2352880e+01
 3.5740000e+00   3.2337108e+01
 3.5794667e+00   3.2386221e+01
 3.5849333e+00   3.2346281e+01
 3.5904000e+00   3.2365662e+01
 3.5958667e+00   3.2338584e+01
 3.6013333e+00   3.2259697e+01
 3.6068000e+00   3.2168358e+01
 3.6122667e+00   3.2176866e+01
 3.6177333e+00   3.1940501e+01
 3.6232000e+00   3.1894597e+01
 3.6286667e+00   3.1721722e+01
 3.6341333e+00   3.1803740e+01
 3.6396000e+00   3.1613666e+01
 3.6450667e+00   3.1553383e+01
 3.6505333e+00   3.1489406e+01
 3.6560000e+00   3.1471924e+01
 3.6614667e+00   3.1345184e+01
 3.6669333e+00   3.1403517e+01
 3.6724000e+00   3.1463968e+01
 3.6778667e+00   3.1239357e+01
 3.6833333e+00   3.1363429e+01
 3.6888000e+00   3.1281987e+01
 3.6942667e+00   3.1421339e+01
 3.6997333e+00   3.1187659e+01
 3.7052000e+00   3.1300480e+01
 3.7106667e+00   3.1200784e+01
 3.7161333e+00   3.1272401e+01
 3.7216000e+00   3.1127673e+01
 3.7270667e+00   3.1143126e+01
 3.7325333e+00   3.1151238e+01
 3.7380000e+00   3.1194285e+01
 3.7434667e+00   3.1127045e+01
 3.7489333e+00   3.1154111e+01
 3.7544000e+00   3.1130668e+01
 3.7598667e+00   3.1082017e+01
 3.7653333e+00   3.1122877e+01
 3.7708000e+00   3.1095388e+01
 3.7762667e+00   3.1210326e+01
 3.7817333e+00   3.1121016e+01
 3.7872000e+00   3.1122225e+01
 3.7926667e+00   3.1148632e+01
 3.7981333e+00   3.1148523e+01
 3.8036000e+00   3.1132526e+01
 3.8090667e+00   3.1192160e+01
 3.8145333e+00   3.1256626e+01
 3.8200000e+00   3.1139176e+01
 3.8254667e+00   3.1198463e+01
 3.8309333e+00   3.1262522e+01
 3.8364000e+00   3.1137743e+01
 3.8418667e+00   3.1148075e+01
 3.8473333e+00   3.1196707e+01
 3.8528000e+00   3.1084929e+01
 3.8582667e+00   3.1351307e+01
 3.8637333e+00   3.1228223e+01
 3.8692000e+00   3.1279676e+01
 3.8746667e+00   3.1256663e+01
 3.8801333e+00   3.1420481e+01
 3.8856000e+00   3.1374257e+01
 3.8910667e+00   3.1450223e+01
 3.8965333e+00   3.1353047e+01
 3.9020000e+00   3.1456722e+01
 3.9074667e+00   3.1326104e+01
 3.9129333e+00   3.1562471e+01
 3.9184000e+00   3.1538944e+01
 3.9238667e+00   3.1786962e+01
 3.9293333e+00   3.1895277e+01
 3.9348000e+00   3.1982688e+01
 3.9402667e+00   3.2069950e+01
 3.9457333e+00   3.2231935e+01
 3.9512000e+00   3.2358742e+01
 3.9566667e+00   3.2548699e+01
 3.9621333e+00   3.2554994e+01
 3.9676000e+00   3.2682127e+01
 3.9730667e+00   3.2616206e+01
 3.9785333e+00   3.2586992e+01
 3.9840000e+00   3.2495706e+01
 3.9894667e+00   3.2430733e+01
 3.9949333e+00   3.2629464e+01
 4.0004000e+00   3.2543609e+01
 4.0058667e+00   3.2752589e+01
 4.0113333e+00   3.2763048e+01
 4.0168000e+00   3.2914563e+01
 4.0222667e+00   3.2980578e+01
 4.0277333e+00   3.3190357e+01
 4.0332000e+00   3.3336599e+01
 4.0386667e+00   3.3467960e+01
 4.0441333e+00   3.3894452e+01
 4.0496000e+00   3.4021486e+01
 4.0550667e+00   3.4588044e+01
 4.0605333e+00   3.5120378e+01
 4.0660000e+00   3.5910823e+01
 4.0714667e+00   3.6953396e+01
 4.0769333e+00   3.8497342e+01
 4.0824000e+00   4.0485315e+01
 4.0878667e+00   4.4139520e+01
 4.0933333e+00   4.8781713e+01
 4.0988000e+00   5.6771024e+01
 4.1042667e+00   6.7052071e+01
 4.1097333e+00   8.3228734e+01
 4.1152000e+00   1.0083200e+02
 4.1206667e+00   1.2878321e+02
 4.1261333e+00   1.5313616e+02
 4.1316000e+00   1.8757426e+02
 4.1370667e+00   2.1229413e+02
 4.1425333e+00   2.3711066e+02
 4.1480000e+00   2.5020215e+02
 4.1534667e+00   2.5599885e+02
 4.1589333e+00   2.4817896e+02
 4.1644000e+00   2.3585582e+02
 4.1698667e+00   2.0894408e+02
 4.1753333e+00   1.8312707e+02
 4.1808000e+00   1.5142158e+02
 4.1862667e+00   1.2652247e+02
 4.1917333e+00   1.0074348e+02
 4.1972000e+00   8.2757373e+01
 4.2026667e+00   6.8288272e+01
 4.2081333e+00   5.7555483e+01
 4.2136000e+00   5.0723119e+01
 4.2190667e+00   4.5773596e+01
 4.2245333e+00   4.2669179e+01
 4.2300000e+00   4.0690004e+01
 4.2354667e+00   3.9169940e+01
 4.2409333e+00   3.8433716e+01
 4.2464000e+00   3.7527944e+01
 4.2518667e+00   3.7040030e+01
 4.2573333e+00   3.6516610e+01
 4.2628000e+00   3.6048745e+01
 4.2682667e+00   3.5833427e+01
 4.2737333e+00   3.5451001e+01
 4.2792000e+00   3.5317127e+01
 4.2846667e+00   3.5149588e+01
 4.2901333e+00   3.5071692e+01
 4.2956000e+00   3.4765090e+01
 4.3010667e+00   3.4871542e+01
 4.3065333e+00   3.4576015e+01
 4.3120000e+00   3.4740938e+01
 4.3174667e+00   3.4484602e+01
 4.3229333e+00   3.4573882e+01
 4.3284000e+00   3.4297841e+01
 4.3338667e+00   3.4406716e+01
 4.3393333e+00   3.4345119e+01
 4.3448000e+00   3.4302354e+01
 4.3502667e+00   3.4394277e+01
 4.3557333e+00   3.4338730e+01
 4.3612000e+00   3.4459059e+01
 4.3666667e+00   3.4491223e+01
 4.3721333e+00   3.4600971e+01
 4.3776000e+00   3.4500464e+01
 4.3830667e+00   3.4855347e+01
 4.3885333e+00   3.4742080e+01
 4.3940000e+00   3.5174245e+01
 4.3994667e+00   3.5256993e+01
 4.4049333e+00   3.5549515e+01
 4.4104000e+00   3.5780467e+01
 4.4158667e+00   3.6693849e+01
 4.4213333e+00   3.7136879e+01
 4.4268000e+00   3.8213108e+01
 4.4322667e+00   3.9544851e+01
 4.4377333e+00   4.2305447e+01
 4.4432000e+00   4.6427256e+01
 4.4486667e+00   5.3235934e+01
 4.4541333e+00   6.4228489e+01
 4.4596000e+00   8.1121322e+01
 4.4650667e+00   1.0314134e+02
 4.4705333e+00   1.3232917e+02
 4.4760000e+00   1.7579220e+02
 4.4814667e+00   2.1446803e+02
 4.4869333e+00   2.6054730e+02
 4.4924000e+00   2.9926284e+02
 4.4978667e+00   3.3461105e+02
 4.5033333e+00   3.4741930e+02
 4.5088000e+00   3.5007373e+02
 4.5142667e+00   3.4076547e+02
 4.5197333e+00   3.0762177e+02
 4.5252000e+00   2.6483164e+02
 4.5306667e+00   2.2324367e+02
 4.5361333e+00   1.7544638e+02
 4.5416000e+00   1.4299879e+02
 4.5470667e+00   1.1045924e+02
 4.5525333e+00   9.4228144e+01
 4.5580000e+00   7.6763496e+01
 4.5634667e+00   6.9501971e+01
 4.5689333e+00   6.2650260e+01
 4.5744000e+00   5.9885211e+01
 4.5798667e+00   5.7929005e+01
 4.5853333e+00   5.6594471e+01
 4.5908000e+00   5.6622653e+01
 4.5962667e+00   5.6571615e+01
 4.6017333e+00   5.6868837e+01
 4.6072000e+00   5.7477546e+01
 4.6126667e+00   5.7944354e+01
 4.6181333e+00   5.9685158e+01
 4.6236000e+00   6.0535954e+01
 4.6290667e+00   6.6657694e+01
 4.6345333e+00   6.5722030e+01
 4.6400000e+00   7.3204583e+01
 4.6454667e+00   7.5972018e+01
 4.6509333e+00   8.5467184e+01
 4.6564000e+00   9.8655016e+01
 4.6618667e+00   1.2136928e+02
 4.6673333e+00   1.5300341e+02
 4.6728000e+00   1.9969372e+02
 4.6782667e+00   2.6406176e+02
 4.6837333e+00   3.5031330e+02
 4.6892000e+00   4.5368151e+02
 4.6946667e+00   5.6937211e+02
 4.7001333e+00   6.9691735e+02
 4.7056000e+00   8.1801423e+02
 4.7110667e+00   9.2857194e+02
 4.7165333e+00   1.0167635e+03
 4.7220000e+00   1.0538847e+03
 4.7274667e+00   1.0569313e+03
 4.7329333e+00   1.0041009e+03
 4.7384000e+00   9.1969865e+02
 4.7438667e+00   7.8830983e+02
 4.7493333e+00   6.5224603e+02
 4.7548000e+00   5.2599864e+02
 4.7602667e+00   3.9716714e+02
 4.7657333e+00   3.0306320e+02
 4.7712000e+00   2.2226907e+02
 4.7766667e+00   1.6268748e+02
 4.7821333e+00   1.1972313e+02
 4.7876000e+00   9.4991976e+01
 4.7930667e+00   7.5303751e+01
 4.7985333e+00   6.3887859e+01
 4.8040000e+00   5.7442683e+01
 4.8094667e+00   5.2057859e+01
 4.8149333e+00   4.8734830e+01
 4.8204000e+00   4.6626062e+01
 4.8258667e+00   4.4810041e+01
 4.8313333e+00   4.3366149e+01
 4.8368000e+00   4.2658549e+01
 4.8422667e+00   4.1783775e+01
 4.8477333e+00   4.1507818e+01
 4.8532000e+00   4.0950222e+01
 4.8586667e+00   4.0527031e+01
 4.8641333e+00   4.0286769e+01
 4.8696000e+00   3.9347370e+01
 4.8750667e+00   3.8987517e+01
 4.8805333e+00   3.8557598e+01
 4.8860000e+00   3.8329954e+01
 4.8914667e+00   3.8194965e+01
 4.8969333e+00   3.8018622e+01
 4.9024000e+00   3.7794167e+01
 4.9078667e+00   3.7604672e+01
 4.9133333e+00   3.7600109e+01
 4.9188000e+00   3.7499971e+01
 4.9242667e+00   3.7684200e+01
 4.9297333e+00   3.7762737e+01
 4.9352000e+00   3.7755969e+01
 4.9406667e+00   3.8028332e+01
 4.9461333e+00   3.8118198e+01
 4.9516000e+00   3.8432127e+01
 4.9570667e+00   3.8775762e+01
 4.9625333e+00   3.9127833e+01
 4.9680000e+00   3.9096975e+01
 4.9734667e+00   3.9745383e+01
 4.9789333e+00   4.0412928e+01
 4.9844000e+00   4.0641185e+01
 4.9898667e+00   4.2445794e+01
 4.9953333e+00   4.6011119e+01
 5.0008000e+00   5.3209474e+01
 5.0062667e+00   5.3496869e+01
 5.0117333e+00   7.6185377e+01
 5.0172000e+00   7.3373784e+01
 5.0226667e+00   1.1126977e+02
 5.0281333e+00   1.3211962e+02
 5.0336000e+00   1.3785888e+02
 5.0390667e+00   2.0779465e+02
 5.0445333e+00   2.6296075e+02
 5.0500000e+00   2.4580159e+02
 5.0554667e+00   3.8217731e+02
 5.0609333e+00   2.9970483e+02
 5.0664000e+00   4.4630094e+02
 5.0718667e+00   3.4651530e+02
 5.0773333e+00   4.1166258e+02
 5.0828000e+00   3.6857710e+02
 5.0882667e+00   3.7887019e+02
 5.0937333e+00   3.1507009e+02
 5.0992000e+00   2.6875968e+02
 5.1046667e+00   2.5028487e+02
 5.1101333e+00   1.5997097e+02
 5.1156000e+00   1.1593349e+02
 5.1210667e+00   8.1636259e+01
 5.1265333e+00   6.7908556e+01
 5.1320000e+00   5.6472253e+01
 5.1374667e+00   5.0528783e+01
 5.1429333e+00   4.8213453e+01
 5.1484000e+00   4.7253687e+01
 5.1538667e+00   4.7759071e+01
 5.1593333e+00   4.7781404e+01
 5.1648000e+00   4.8526209e+01
 5.1702667e+00   4.8121191e+01
 5.1757333e+00   4.9126388e+01
 5.1812000e+00   4.8012729e+01
 5.1866667e+00   4.7793721e+01
 5.1921333e+00   4.6364327e+01
 5.1976000e+00   4.5165633e+01
 5.2030667e+00   4.3536217e+01
 5.2085333e+00   4.2184635e+01
 5.2140000e+00   4.0297552e+01
 5.2194667e+00   3.9538658e+01
 5.2249333e+00   3.7346186e+01
 5.2304000e+00   3.6663689e+01
 5.2358667e+00   3.5116527e+01
 5.2413333e+00   3.4543215e+01
 5.2468000e+00   3.3732520e+01
 5.2522667e+00   3.3367055e+01
 5.2577333e+00   3.2902782e+01
 5.2632000e+00   3.2774087e+01
 5.2686667e+00   3.2463711e+01
 5.2741333e+00   3.2385538e+01
 5.2796000e+00   3.2223274e+01
 5.2850667e+00   3.2019856e+01
 5.2905333e+00   3.1856046e+01
 5.2960000e+00   3.1710512e+01
 5.3014667e+00   3.1526551e+01
 5.3069333e+00   3.1642854e+01
 5.3124000e+00   3.1304753e+01
 5.3178667e+00   3.1371703e+01
 5.3233333e+00   3.1171202e+01
 5.3288000e+00   3.1049374e+01
 5.3342667e+00   3.1052689e+01
 5.3397333e+00   3.0999593e+01
 5.3452000e+00   3.0890321e+01
 5.3506667e+00   3.0797527e+01
 5.3561333e+00   3.0847410e+01
 5.3616000e+00   3.0694606e+01
 5.3670667e+00   3.0626025e+01
 5.3725333e+00   3.0587666e+01
 5.3780000e+00   3.0492659e+01
 5.3834667e+00   3.0293707e+01
 5.3889333e+00   3.0367051e+01
 5.3944000e+00   3.0105073e+01
 5.3998667e+00   3.0121908e+01
 5.4053333e+00   2.9913219e+01
 5.4108000e+00   2.9974639e+01
 5.4162667e+00   2.9745073e+01
 5.4217333e+00   2.9915179e+01
 5.4272000e+00   2.9755071e+01
 5.4326667e+00   2.9788521e+01
 5.4381333e+00   2.9649213e+01
 5.4436000e+00   2.9664111e+01
 5.4490667e+00   2.9536424e+01
 5.4545333e+00   2.9653599e+01
 5.4600000e+00   2.9519497e+01
 5.4654667e+00   2.9465105e+01
 5.4709333e+00   2.9447413e+01
 5.4764000e+00   2.9436763e+01
 5.4818667e+00   2.9401038e+01
 5.4873333e+00   2.9378130e+01
 5.4928000e+00   2.9311711e+01
 5.4982667e+00   2.9283027e+01
 5.5037333e+00   2.9261898e+01
 5.5092000e+00   2.9202839e+01
 5.5146667e+00   2.9298207e+01
 5.5201333e+00   2.9217387e+01
 5.5256000e+00   2.9218903e+01
 5.5310667e+00   2.9186384e+01
 5.5365333e+00   2.9186257e+01
 5.5420000e+00   2.9182794e+01
 5.5474667e+00   2.9197055e+01
 5.5529333e+00   2.9172546e+01
 5.5584000e+00   2.9172711e+01
 5.5638667e+00   2.9250474e+01
 5.5693333e+00   2.9467597e+01
 5.5748000e+00   2.9286826e+01
 5.5802667e+00   2.9810131e+01
 5.5857333e+00   2.9805354e+01
 5.5912000e+00   2.9294900e+01
 5.5966667e+00   2.9440005e+01
 5.6021333e+00   2.9351044e+01
 5.6076000e+00   2.9421736e+01
 5.6130667e+00   2.9350454e+01
 5.6185333e+00   2.9452862e+01
 5.6240000e+00   2.9388370e+01
 5.6294667e+00   2.9385325e+01
 5.6349333e+00   2.9330280e+01
 5.6404000e+00   2.9354032e+01
 5.6458667e+00   2.9273162e+01
 5.6513333e+00   2.9322378e+01
 5.6568000e+00   2.9349179e+01
 5.6622667e+00   2.9239906e+01
 5.6677333e+00   2.9517454e+01
 5.6732000e+00   2.9349202e+01
 5.6786667e+00   2.9508569e+01
 5.6841333e+00   2.9523502e+01
 5.6896000e+00   2.9730587e+01
 5.6950667e+00   2.9608940e+01
 5.7005333e+00   2.9861194e+01
 5.7060000e+00   2.9886082e+01
 5.7114667e+00   2.9902382e+01
 5.7169333e+00   3.0122340e+01
 5.7224000e+00   3.0141664e+01
 5.7278667e+00   3.0374534e+01
 5.7333333e+00   3.0518961e+01
 5.7388000e+00   3.0640196e+01
 5.7442667e+00   3.0814874e+01
 5.7497333e+00   3.1118077e+01
 5.7552000e+00   3.1313035e+01
 5.7606667e+00   3.1818495e+01
 5.7661333e+00   3.2297429e+01
 5.7716000e+00   3.2771046e+01
 5.7770667e+00   3.4990850e+01
 5.7825333e+00   3.6075441e+01
 5.7880000e+00   4.5251431e+01
 5.7934667e+00   4.6949060e+01
 5.7989333e+00   6.2458805e+01
 5.8044000e+00   5.5617198e+01
 5.8098667e+00   8.2232823e+01
 5.8153333e+00   9.2942355e+01
 5.8208000e+00   1.1006130e+02
 5.8262667e+00   1.1196386e+02
 5.8317333e+00   1.6934031e+02
 5.8372000e+00   1.5654227e+02
 5.8426667e+00   2.0720983e+02
 5.8481333e+00   2.3812915e+02
 5.8536000e+00   2.2007457e+02
 5.8590667e+00   2.1457828e+02
 5.8645333e+00   2.2894664e+02
 5.8700000e+00   1.8266312e+02
 5.8754667e+00   1.8288570e+02
 5.8809333e+00   1.5471402e+02
 5.8864000e+00   1.5055881e+02
 5.8918667e+00   1.1606464e+02
 5.8973333e+00   1.1001949e+02
 5.9028000e+00   6.9557667e+01
 5.9082667e+00   7.4215129e+01
 5.9137333e+00   4.3795707e+01
 5.9192000e+00   4.2174421e+01
 5.9246667e+00   3.5184007e+01
 5.9301333e+00   3.3509358e+01
 5.9356000e+00   3.2542425e+01
 5.9410667e+00   3.1931925e+01
 5.9465333e+00   3.1719241e+01
 5.9520000e+00   3.1032802e+01
 5.9574667e+00   3.1197997e+01
 5.9629333e+00   3.0883911e+01
 5.9684000e+00   3.0872542e+01
 5.9738667e+00   3.0725749e+01
 5.9793333e+00   3.0966372e+01
 5.9848000e+00   3.0922691e+01
 5.9902667e+00   3.0818798e+01
 5.9957333e+00   3.0856910e+01
 6.0012000e+00   3.0820039e+01
 6.0066667e+00   3.0873968e+01
 6.0121333e+00   3.1096457e+01
 6.0176000e+00   3.1054853e+01
 6.0230667e+00   3.1274067e+01
 6.0285333e+00   3.1495413e+01
 6.0340000e+00   3.1815030e+01
 6.0394667e+00   3.2329412e+01
 6.0449333e+00   3.2714060e+01
 6.0504000e+00   3.3788945e+01
 6.0558667e+00   3.4965794e+01
 6.0613333e+00   3.6817830e+01
 6.0668000e+00   3.9971406e+01
 6.0722667e+00   4.4122616e+01
 6.0777333e+00   5.0064989e+01
 6.0832000e+00   5.8886357e+01
 6.0886667e+00   7.1100057e+01
 6.0941333e+00   8.4424544e+01
 6.0996000e+00   1.0391686e+02
 6.1050667e+00   1.2102232e+02
 6.1105333e+00   1.4321990e+02
 6.1160000e+00   1.5842481e+02
 6.1214667e+00   1.7415144e+02
 6.1269333e+00   1.7951493e+02
 6.1324000e+00   1.8377446e+02
 6.1378667e+00   1.7331647e+02
 6.1433333e+00   1.6688819e+02
 6.1488000e+00   1.4588727e+02
 6.1542667e+00   1.3078339e+02
 6.1597333e+00   1.0934217e+02
 6.1652000e+00   9.3016978e+01
 6.1706667e+00   7.7223878e+01
 6.1761333e+00   6.6019370e+01
 6.1816000e+00   5.4654834e+01
 6.1870667e+00   4.8665525e+01
 6.1925333e+00   4.2911368e+01
 6.1980000e+00   3.9225232e+01
 6.2034667e+00   3.6487531e+01
 6.2089333e+00   3.4949697e+01
 6.2144000e+00   3.3459677e+01
 6.2198667e+00   3.2547309e+01
 6.2253333e+00   3.2033123e+01
 6.2308000e+00   3.1285280e+01
 6.2362667e+00   3.1052334e+01
 6.2417333e+00   3.0631750e+01
 6.2472000e+00   3.0412650e+01
 6.2526667e+00   3.0101612e+01
 6.2581333e+00   3.0009313e+01
 6.2636000e+00   2.9732103e+01
 6.2690667e+00   2.9697993e+01
 6.2745333e+00   2.9464771e+01
 6.2800000e+00   2.9447874e+01
 6.2854667e+00   2.9405390e+01
 6.2909333e+00   2.9297777e+01
 6.2964000e+00   2.9205003e+01
 6.3018667e+00   2.9123797e+01
 6.3073333e+00   2.9121370e+01
 6.3128000e+00   2.8988727e+01
 6.3182667e+00   2.8972720e+01
 6.3237333e+00   2.8890191e+01
 6.3292000e+00   2.8839422e+01
 6.3346667e+00   2.8776902e+01
 6.3401333e+00   2.8888348e+01
 6.3456000e+00   2.8709705e+01
 6.3510667e+00   2.8893652e+01
 6.3565333e+00   2.8834164e+01
 6.3620000e+00   2.8836997e+01
 6.3674667e+00   2.8914614e+01
 6.3729333e+00   2.8876734e+01
 6.3784000e+00   2.8924760e+01
 6.3838667e+00   2.8938154e+01
 6.3893333e+00   2.9120880e+01
 6.3948000e+00   2.8912895e+01
 6.4002667e+00   2.9003128e+01
 6.4057333e+00   2.9010354e+01
 6.4112000e+00   2.8983427e+01
 6.4166667e+00   2.9003807e+01
 6.4221333e+00   2.9065746e+01
 6.4276000e+00   2.8937893e+01
 6.4330667e+00   2.8993635e+01
 6.4385333e+00   2.8911733e+01
 6.4440000e+00   2.9049331e+01
 6.4494667e+00   2.9024129e+01
 6.4549333e+00   2.9133536e+01
 6.4604000e+00   2.9101625e+01
 6.4658667e+00   2.9147095e+01
 6.4713333e+00   2.9063353e+01
 6.4768000e+00   2.9177243e+01
 6.4822667e+00   2.9083818e+01
 6.4877333e+00   2.9196857e+01
 6.4932000e+00   2.9090682e+01
 6.4986667e+00   2.9124350e+01
 6.5041333e+00   2.9085091e+01
 6.5096000e+00   2.9062775e+01
 6.5150667e+00   2.9241939e+01
 6.5205333e+00   2.9126592e+01
 6.5260000e+00   2.9152750e+01
 6.5314667e+00   2.8952037e+01
 6.5369333e+00   2.9187132e+01
 6.5424000e+00   2.8934429e+01
 6.5478667e+00   2.9239273e+01
 6.5533333e+00   2.9230645e+01
 6.5588000e+00   2.9846591e+01
 6.5642667e+00   2.9902979e+01
 6.5697333e+00   2.9140681e+01
 6.5752000e+00   2.9036089e+01
 6.5806667e+00   2.8790523e+01
 6.5861333e+00   2.8786835e+01
 6.5916000e+00   2.8817112e+01
 6.5970667e+00   2.8683942e+01
 6.6025333e+00   2.9093740e+01
 6.6080000e+00   2.8883021e+01
 6.6134667e+00   2.8561458e+01
 6.6189333e+00   2.8632442e+01
 6.6244000e+00   2.8542293e+01
 6.6298667e+00   2.8605462e+01
 6.6353333e+00   2.8516255e+01
 6.6408000e+00   2.8561773e+01
 6.6462667e+00   2.8529788e+01
 6.6517333e+00   2.8573308e+01
 6.6572000e+00   2.8518161e+01
 6.6626667e+00   2.8527841e+01
 6.6681333e+00   2.8513292e+01
 6.6736000e+00   2.8447487e+01
 6.6790667e+00   2.8349643e+01
 6.6845333e+00   2.8497050e+01
 6.6900000e+00   2.8442897e+01
 6.6954667e+00   2.8492900e+01
 6.7009333e+00   2.8472529e+01
 6.7064000e+00   2.8445033e+01
 6.7118667e+00   2.8583331e+01
 6.7173333e+00   2.8490870e+01
 6.7228000e+00   2.8603442e+01
 6.7282667e+00   2.8433029e+01
 6.7337333e+00   2.8538971e+01
 6.7392000e+00   2.8501993e+01
 6.7446667e+00   2.8575480e+01
 6.7501333e+00   2.8512837e+01
 6.7556000e+00   2.8636071e+01
 6.7610667e+00   2.8564557e+01
 6.7665333e+00   2.8556261e+01
 6.7720000e+00   2.8597157e+01
 6.7774667e+00   2.8618627e+01
 6.7829333e+00   2.8598748e+01
 6.7884000e+00   2.8639429e+01
 6.7938667e+00   2.8638917e+01
 6.7993333e+00   2.8649822e+01
 6.8048000e+00   2.8772003e+01
 6.8102667e+00   2.8703455e+01
 6.8157333e+00   2.8776993e+01
 6.8212000e+00   2.8771018e+01
 6.8266667e+00   2.8951008e+01
 6.8321333e+00   2.8785316e+01
 6.8376000e+00   2.8918358e+01
 6.8430667e+00   2.8862458e+01
 6.8485333e+00   2.8971741e+01
 6.8540000e+00   2.8944549e+01
 6.8594667e+00   2.9040802e+01
 6.8649333e+00   2.9013431e+01
 6.8704000e+00   2.9105008e+01
 6.8758667e+00   2.9073537e+01
 6.8813333e+00   2.9163409e+01
 6.8868000e+00   2.9092038e+01
 6.8922667e+00   2.9161535e+01
 6.8977333e+00   2.9125519e+01
 6.9032000e+00   2.9184890e+01
 6.9086667e+00   2.9254340e+01
 6.9141333e+00   2.9177044e+01
 6.9196000e+00   2.9352899e+01
 6.9250667e+00   2.9282539e+01
 6.9305333e+00   2.9383714e+01
 6.9360000e+00   2.9447239e+01
 6.9414667e+00   2.9598129e+01
 6.9469333e+00   2.9480055e+01
 6.9524000e+00   2.9675123e+01
 6.9578667e+00   2.9637448e+01
 6.9633333e+00   2.9749401e+01
 6.9688000e+00   2.9801042e+01
 6.9742667e+00   2.9944608e+01
 6.9797333e+00   2.9968701e+01
 6.9852000e+00   3.0071143e+01
 6.9906667e+00   3.0148440e+01
 6.9961333e+00   3.0227735e+01
 7.0016000e+00   3.0329645e+01
 7.0070667e+00   3.0414455e+01
 7.0125333e+00   3.0510697e+01
 7.0180000e+00   3.0586761e+01
 7.0234667e+00   3.0704969e+01
 7.0289333e+00   3.0728255e+01
 7.0344000e+00   3.0998177e+01
 7.0398667e+00   3.1017363e+01
 7.0453333e+00   3.1246947e+01
 7.0508000e+00   3.1353999e+01
 7.0562667e+00   3.1663404e+01
 7.0617333e+00   3.1819125e+01
 7.0672000e+00   3.2195075e+01
 7.0726667e+00   3.2370734e+01
 7.0781333e+00   3.2800673e+01
 7.0836000e+00   3.3201783e+01
 7.0890667e+00   3.3767795e+01
 7.0945333e+00   3.4436501e+01
 7.1000000e+00   3.5314688e+01
 7.1054667e+00   3.6577378e+01
 7.1109333e+00   3.7938159e+01
 7.1164000e+00   3.9991687e+01
 7.1218667e+00   4.2530741e+01
 7.1273333e+00   4.6003648e+01
 7.1328000e+00   5.0366127e+01
 7.1382667e+00   5.5989058e+01
 7.1437333e+00   6.3799601e+01
 7.1492000e+00   7.2502022e+01
 7.1546667e+00   8.4133333e+01
 7.1601333e+00   9.6237788e+01
 7.1656000e+00   1.1133817e+02
 7.1710667e+00   1.2478483e+02
 7.1765333e+00   1.3920718e+02
 7.1820000e+00   1.5050988e+02
 7.1874667e+00   1.6046582e+02
 7.1929333e+00   1.6454911e+02
 7.1984000e+00   1.6645520e+02
 7.2038667e+00   1.6313602e+02
 7.2093333e+00   1.5564106e+02
 7.2148000e+00   1.4523668e+02
 7.2202667e+00   1.3360940e+02
 7.2257333e+00   1.1837112e+02
 7.2312000e+00   1.0524741e+02
 7.2366667e+00   9.1179635e+01
 7.2421333e+00   7.8827731e+01
 7.2476000e+00   6.8287419e+01
 7.2530667e+00   5.9584569e+01
 7.2585333e+00   5.2478202e+01
 7.2640000e+00   4.7657520e+01
 7.2694667e+00   4.3349674e+01
 7.2749333e+00   4.0588291e+01
 7.2804000e+00   3.8417353e+01
 7.2858667e+00   3.6863330e+01
 7.2913333e+00   3.5693407e+01
 7.2968000e+00   3.4858480e+01
 7.3022667e+00   3.4312095e+01
 7.3077333e+00   3.3809830e+01
 7.3132000e+00   3.3525214e+01
 7.3186667e+00   3.3182952e+01
 7.3241333e+00   3.3054688e+01
 7.3296000e+00   3.2723221e+01
 7.3350667e+00   3.2748021e+01
 7.3405333e+00   3.2424970e+01
 7.3460000e+00   3.2424625e+01
 7.3514667e+00   3.2226775e+01
 7.3569333e+00   3.2168711e+01
 7.3624000e+00   3.1888623e+01
 7.3678667e+00   3.1938827e+01
 7.3733333e+00   3.1658005e+01
 7.3788000e+00   3.1571530e+01
 7.3842667e+00   3.1404998e+01
 7.3897333e+00   3.1362378e+01
 7.3952000e+00   3.1175048e+01
 7.4006667e+00   3.1194889e+01
 7.4061333e+00   3.1105506e+01
 7.4116000e+00   3.0900556e+01
 7.4170667e+00   3.0984133e+01
 7.4225333e+00   3.0823383e+01
 7.4280000e+00   3.0820519e+01
 7.4334667e+00   3.0714843e+01
 7.4389333e+00   3.0769565e+01
 7.4444000e+00   3.0637399e+01
 7.4498667e+00   3.0742666e+01
 7.4553333e+00   3.0613656e+01
 7.4608000e+00   3.0772570e+01
 7.4662667e+00   3.0684492e+01
 7.4717333e+00   3.0787768e+01
 7.4772000e+00   3.1531060e+01
 7.4826667e+00   3.1557535e+01
 7.4881333e+00   3.0656327e+01
 7.4936000e+00   3.1033920e+01
 7.4990667e+00   3.0741890e+01
 7.5045333e+00   3.0684663e+01
 7.5100000e+00   3.0687033e+01
 7.5154667e+00   3.0639921e+01
 7.5209333e+00   3.0731609e+01
 7.5264000e+00   3.0617888e+01
 7.5318667e+00   3.0808039e+01
 7.5373333e+00   3.0662319e+01
 7.5428000e+00   3.0769649e+01
 7.5482667e+00   3.0631612e+01
 7.5537333e+00   3.0782802e+01
 7.5592000e+00   3.0634258e+01
 7.5646667e+00   3.0767154e+01
 7.5701333e+00   3.0746150e+01
 7.5756000e+00   3.0861231e+01
 7.5810667e+00   3.0991030e+01
 7.5865333e+00   3.0877855e+01
 7.5920000e+00   3.0987403e+01
 7.5974667e+00   3.1179068e+01
 7.6029333e+00   3.1128182e+01
 7.6084000e+00   3.1034607e+01
 7.6138667e+00   3.0972838e+01
 7.6193333e+00   3.1068684e+01
 7.6248000e+00   3.0953133e+01
 7.6302667e+00   3.0839845e+01
 7.6357333e+00   3.0836246e+01
 7.6412000e+00   3.0825355e+01
 7.6466667e+00   3.0913639e+01
 7.6521333e+00   3.0822382e+01
 7.6576000e+00   3.0822945e+01
 7.6630667e+00   3.0758148e+01
 7.6685333e+00   3.0865683e+01
 7.6740000e+00   3.0892755e+01
 7.6794667e+00   3.0985180e+01
 7.6849333e+00   3.0966632e+01
 7.6904000e+00   3.1057650e+01
 7.6958667e+00   3.1023060e+01
 7.7013333e+00   3.1090631e+01
 7.7068000e+00   3.1035205e+01
 7.7122667e+00   3.1111425e+01
 7.7177333e+00   3.1176067e+01
 7.7232000e+00   3.1127748e+01
 7.7286667e+00   3.1284531e+01
 7.7341333e+00   3.1248762e+01
 7.7396000e+00   3.1428464e+01
 7.7450667e+00   3.1327212e+01
 7.7505333e+00   3.1534455e+01
 7.7560000e+00   3.1471920e+01
 7.7614667e+00   3.1729073e+01
 7.7669333e+00   3.1721512e+01
 7.7724000e+00   3.1882725e+01
 7.7778667e+00   3.1832494e+01
 7.7833333e+00   3.2089025e+01
 7.7888000e+00   3.2066149e+01
 7.7942667e+00   3.2334878e+01
 7.7997333e+00   3.2405413e+01
 7.8052000e+00   3.2662061e+01
 7.8106667e+00   3.2803089e+01
 7.8161333e+00   3.3090945e+01
 7.8216000e+00   3.3428785e+01
 7.8270667e+00   3.3730012e+01
 7.8325333e+00   3.4230237e+01
 7.8380000e+00   3.4603599e+01
 7.8434667e+00   3.5410319e+01
 7.8489333e+00   3.6221311e+01
 7.8544000e+00   3.7492652e+01
 7.8598667e+00   3.9871047e+01
 7.8653333e+00   4.2003553e+01
 7.8708000e+00   4.4087175e+01
 7.8762667e+00   4.8379575e+01
 7.8817333e+00   5.3426613e+01
 7.8872000e+00   6.1280242e+01
 7.8926667e+00   7.2604109e+01
 7.8981333e+00   8.5503042e+01
 7.9036000e+00   1.0287673e+02
 7.9090667e+00   1.2169960e+02
 7.9145333e+00   1.4076948e+02
 7.9200000e+00   1.6030774e+02
 7.9254667e+00   1.7502730e+02
 7.9309333e+00   1.8761945e+02
 7.9364000e+00   1.9089238e+02
 7.9418667e+00   1.9292165e+02
 7.9473333e+00   1.8385680e+02
 7.9528000e+00   1.7383031e+02
 7.9582667e+00   1.5737570e+02
 7.9637333e+00   1.3995675e+02
 7.9692000e+00   1.2150156e+02
 7.9746667e+00   1.0386352e+02
 7.9801333e+00   8.8953604e+01
 7.9856000e+00   7.5346328e+01
 7.9910667e+00   6.5075486e+01
 7.9965333e+00   5.6760774e+01
 8.0020000e+00   5.0900972e+01
 8.0074667e+00   4.6172707e+01
 8.0129333e+00   4.3367964e+01
 8.0184000e+00   4.0924070e+01
 8.0238667e+00   3.9436346e+01
 8.0293333e+00   3.8293493e+01
 8.0348000e+00   3.7234489e+01
 8.0402667e+00   3.6721792e+01
 8.0457333e+00   3.6025147e+01
 8.0512000e+00   3.5905362e+01
 8.0566667e+00   3.5318460e+01
 8.0621333e+00   3.5425184e+01
 8.0676000e+00   3.4957585e+01
 8.0730667e+00   3.5066488e+01
 8.0785333e+00   3.4744262e+01
 8.0840000e+00   3.4741908e+01
 8.0894667e+00   3.4570275e+01
 8.0949333e+00   3.4605578e+01
 8.1004000e+00   3.4498730e+01
 8.1058667e+00   3.4503359e+01
 8.1113333e+00   3.5200222e+01
 8.1168000e+00   3.4526827e+01
 8.1222667e+00   3.9259968e+01
 8.1277333e+00   3.4599584e+01
 8.1332000e+00   3.6874232e+01
 8.1386667e+00   3.5328613e+01
 8.1441333e+00   3.5086455e+01
 8.1496000e+00   3.4938085e+01
 8.1550667e+00   3.5251478e+01
 8.1605333e+00   3.4780266e+01
 8.1660000e+00   3.5453545e+01
 8.1714667e+00   3.4918935e+01
 8.1769333e+00   3.5688869e+01
 8.1824000e+00   3.5398702e+01
 8.1878667e+00   3.6028566e+01
 8.1933333e+00   3.5864461e+01
 8.1988000e+00   3.6537634e+01
 8.2042667e+00   3.6432640e+01
 8.2097333e+00   3.7489250e+01
 8.2152000e+00   3.7847332e+01
 8.2206667e+00   3.9449029e+01
 8.2261333e+00   4.2554149e+01
 8.2316000e+00   4.6122574e+01
 8.2370667e+00   6.2349708e+01
 8.2425333e+00   7.7150013e+01
 8.2480000e+00   1.1644238e+02
 8.2534667e+00   1.0964885e+02
 8.2589333e+00   1.5935805e+02
 8.2644000e+00   1.2042166e+02
 8.2698667e+00   1.5136339e+02
 8.2753333e+00   1.3030233e+02
 8.2808000e+00   1.6044026e+02
 8.2862667e+00   1.4323690e+02
 8.2917333e+00   1.7560059e+02
 8.2972000e+00   1.4013564e+02
 8.3026667e+00   1.8998285e+02
 8.3081333e+00   1.2700812e+02
 8.3136000e+00   1.7975233e+02
 8.3190667e+00   1.3828224e+02
 8.3245333e+00   1.4139807e+02
 8.3300000e+00   9.1506934e+01
 8.3354667e+00   1.0898130e+02
 8.3409333e+00   6.3588243e+01
 8.3464000e+00   8.1500140e+01
 8.3518667e+00   5.2095637e+01
 8.3573333e+00   4.9594443e+01
 8.3628000e+00   4.5308981e+01
 8.3682667e+00   4.2520767e+01
 8.3737333e+00   4.2112651e+01
 8.3792000e+00   4.0627806e+01
 8.3846667e+00   4.0907725e+01
 8.3901333e+00   4.0088352e+01
 8.3956000e+00   4.1040385e+01
 8.4010667e+00   4.0999680e+01
 8.4065333e+00   4.2379743e+01
 8.4120000e+00   4.3268679e+01
 8.4174667e+00   4.5396491e+01
 8.4229333e+00   4.7615942e+01
 8.4284000e+00   5.1328446e+01
 8.4338667e+00   5.5648122e+01
 8.4393333e+00   6.2116401e+01
 8.4448000e+00   6.9783894e+01
 8.4502667e+00   7.9293210e+01
 8.4557333e+00   9.1346005e+01
 8.4612000e+00   1.0425360e+02
 8.4666667e+00   1.1903501e+02
 8.4721333e+00   1.3341102e+02
 8.4776000e+00   1.4740498e+02
 8.4830667e+00   1.5864878e+02
 8.4885333e+00   1.6826160e+02
 8.4940000e+00   1.7266740e+02
 8.4994667e+00   1.7318715e+02
 8.5049333e+00   1.6803983e+02
 8.5104000e+00   1.6066156e+02
 8.5158667e+00   1.4872341e+02
 8.5213333e+00   1.3696891e+02
 8.5268000e+00   1.2227152e+02
 8.5322667e+00   1.1085290e+02
 8.5377333e+00   9.7958003e+01
 8.5432000e+00   8.9624537e+01
 8.5486667e+00   8.2122030e+01
 8.5541333e+00   7.8674927e+01
 8.5596000e+00   7.6640460e+01
 8.5650667e+00   7.7787574e+01
 8.5705333e+00   8.1342731e+01
 8.5760000e+00   8.6312024e+01
 8.5814667e+00   9.3727168e+01
 8.5869333e+00   1.0030390e+02
 8.5924000e+00   1.0978753e+02
 8.5978667e+00   1.1533463e+02
 8.6033333e+00   1.2435180e+02
 8.6088000e+00   1.2687397e+02
 8.6142667e+00   1.3074398e+02
 8.6197333e+00   1.2916758e+02
 8.6252000e+00   1.2727965e+02
 8.6306667e+00   1.2068176e+02
 8.6361333e+00   1.1378923e+02
 8.6416000e+00   1.0412152e+02
 8.6470667e+00   9.5140915e+01
 8.6525333e+00   8.4734020e+01
 8.6580000e+00   7.5830622e+01
 8.6634667e+00   6.7794602e+01
 8.6689333e+00   6.0616142e+01
 8.6744000e+00   5.4289935e+01
 8.6798667e+00   4.9664259e+01
 8.6853333e+00   4.6299026e+01
 8.6908000e+00   4.2970280e+01
 8.6962667e+00   4.1236693e+01
 8.7017333e+00   3.9168039e+01
 8.7072000e+00   3.8238376e+01
 8.7126667e+00   3.6849796e+01
 8.7181333e+00   3.6585198e+01
 8.7236000e+00   3.5458799e+01
 8.7290667e+00   3.5420145e+01
 8.7345333e+00   3.4635755e+01
 8.7400000e+00   3.4636827e+01
 8.7454667e+00   3.4033936e+01
 8.7509333e+00   3.4166872e+01
 8.7564000e+00   3.3668276e+01
 8.7618667e+00   3.3805262e+01
 8.7673333e+00   3.3352231e+01
 8.7728000e+00   3.3673516e+01
 8.7782667e+00   3.3093846e+01
 8.7837333e+00   3.3109175e+01
 8.7892000e+00   3.2762557e+01
 8.7946667e+00   3.2718511e+01
 8.8001333e+00   3.2698279e+01
 8.8056000e+00   3.2459375e+01
 8.8110667e+00   3.2465817e+01
 8.8165333e+00   3.2238702e+01
 8.8220000e+00   3.2224333e+01
 8.8274667e+00   3.1992546e+01
 8.8329333e+00   3.2129516e+01
 8.8384000e+00   3.1843646e+01
 8.8438667e+00   3.1877085e+01
 8.8493333e+00   3.1607039e+01
 8.8548000e+00   3.1799447e+01
 8.8602667e+00   3.1448486e+01
 8.8657333e+00   3.1676487e+01
 8.8712000e+00   3.1320767e+01
 8.8766667e+00   3.1557915e+01
 8.8821333e+00   3.1373682e+01
 8.8876000e+00   3.1576105e+01
 8.8930667e+00   3.1335798e+01
 8.8985333e+00   3.1548184e+01
 8.9040000e+00   3.1439119e+01
 8.9094667e+00   3.1495505e+01
 8.9149333e+00   3.1634638e+01
 8.9204000e+00   3.1744771e+01
 8.9258667e+00   3.1918712e+01
 8.9313333e+00   3.2073463e+01
 8.9368000e+00   3.2382670e+01
 8.9422667e+00   3.2681312e+01
 8.9477333e+00   3.3226016e+01
 8.9532000e+00   3.3659206e+01
 8.9586667e+00   3.4611445e+01
 8.9641333e+00   3.5300765e+01
 8.9696000e+00   3.6832775e+01
 8.9750667e+00   3.8007824e+01
 8.9805333e+00   4.0401307e+01
 8.9860000e+00   4.2109280e+01
 8.9914667e+00   4.5330146e+01
 8.9969333e+00   4.7297705e+01
 9.0024000e+00   5.0619430e+01
 9.0078667e+00   5.2306142e+01
 9.0133333e+00   5.4328402e+01
 9.0188000e+00   5.4991265e+01
 9.0242667e+00   5.5154511e+01
 9.0297333e+00   5.4595865e+01
 9.0352000e+00   5.2485345e+01
 9.0406667e+00   5.0781309e+01
 9.0461333e+00   4.7490570e+01
 9.0516000e+00   4.4946919e+01
 9.0570667e+00   4.1561219e+01
 9.0625333e+00   3.9438733e+01
 9.0680000e+00   3.6856746e+01
 9.0734667e+00   3.5381399e+01
 9.0789333e+00   3.3363117e+01
 9.0844000e+00   3.2680845e+01
 9.0898667e+00   3.1328115e+01
 9.0953333e+00   3.0885789e+01
 9.1008000e+00   3.0183330e+01
 9.1062667e+00   2.9989549e+01
 9.1117333e+00   2.9471055e+01
 9.1172000e+00   2.9500270e+01
 9.1226667e+00   2.9080048e+01
 9.1281333e+00   2.9067467e+01
 9.1336000e+00   2.8817563e+01
 9.1390667e+00   2.8768071e+01
 9.1445333e+00   2.8610147e+01
 9.1500000e+00   2.8494101e+01
 9.1554667e+00   2.8510672e+01
 9.1609333e+00   2.8515577e+01
 9.1664000e+00   2.8381074e+01
 9.1718667e+00   2.8299076e+01
 9.1773333e+00   2.8336953e+01
 9.1828000e+00   2.8087820e+01
 9.1882667e+00   2.8205318e+01
 9.1937333e+00   2.7906755e+01
 9.1992000e+00   2.8144789e+01
 9.2046667e+00   2.7768880e+01
 9.2101333e+00   2.7998651e+01
 9.2156000e+00   2.7734133e+01
 9.2210667e+00   2.7828330e+01
 9.2265333e+00   2.7619344e+01
 9.2320000e+00   2.7787583e+01
 9.2374667e+00   2.7563243e+01
 9.2429333e+00   2.7525131e+01
 9.2484000e+00   2.7514152e+01
 9.2538667e+00   2.7475133e+01
 9.2593333e+00   2.7352034e+01
 9.2648000e+00   2.7398683e+01
 9.2702667e+00   2.7310487e+01
 9.2757333e+00   2.7310238e+01
 9.2812000e+00   2.7282985e+01
 9.2866667e+00   2.7219211e+01
 9.2921333e+00   2.7196094e+01
 9.2976000e+00   2.7182845e+01
 9.3030667e+00   2.7148549e+01
 9.3085333e+00   2.7143910e+01
 9.3140000e+00   2.7187534e+01
 9.3194667e+00   2.7040049e+01
 9.3249333e+00   2.7222590e+01
 9.3304000e+00   2.7062414e+01
 9.3358667e+00   2.7243148e+01
 9.3413333e+00   2.7167970e+01
 9.3468000e+00   2.7506440e+01
 9.3522667e+00   2.7339542e+01
 9.3577333e+00   2.7674797e+01
 9.3632000e+00   2.7561546e+01
 9.3686667e+00   2.7955932e+01
 9.3741333e+00   2.8079059e+01
 9.3796000e+00   2.8504174e+01
 9.3850667e+00   2.8942448e+01
 9.3905333e+00   2.9606570e+01
 9.3960000e+00   3.0456251e+01
 9.4014667e+00   3.1502075e+01
 9.4069333e+00   3.2694827e+01
 9.4124000e+00   3.4148866e+01
 9.4178667e+00   3.5942340e+01
 9.4233333e+00   3.7704974e+01
 9.4288000e+00   3.9923480e+01
 9.4342667e+00   4.1944069e+01
 9.4397333e+00   4.4086779e+01
 9.4452000e+00   4.5753424e+01
 9.4506667e+00   4.7342423e+01
 9.4561333e+00   4.7933372e+01
 9.4616000e+00   4.8440196e+01
 9.4670667e+00   4.7873098e+01
 9.4725333e+00   4.7002242e+01
 9.4780000e+00   4.5315403e+01
 9.4834667e+00   4.3419834e+01
 9.4889333e+00   4.1229120e+01
 9.4944000e+00   3.8997998e+01
 9.4998667e+00   3.6665042e+01
 9.5053333e+00   3.4643333e+01
 9.5108000e+00   3.2912391e+01
 9.5162667e+00   3.1196460e+01
 9.5217333e+00   3.0070810e+01
 9.5272000e+00   2.9045421e+01
 9.5326667e+00   2.8352356e+01
 9.5381333e+00   2.7763480e+01
 9.5436000e+00   2.7408893e+01
 9.5490667e+00   2.7140959e+01
 9.5545333e+00   2.6929668e+01
 9.5600000e+00   2.6858992e+01
 9.5654667e+00   2.6738341e+01
 9.5709333e+00   2.6595478e+01
 9.5764000e+00   2.6623737e+01
 9.5818667e+00   2.6551068e+01
 9.5873333e+00   2.6664735e+01
 9.5928000e+00   2.6680172e+01
 9.5982667e+00   2.6774037e+01
 9.6037333e+00   2.6755902e+01
 9.6092000e+00   2.6819885e+01
 9.6146667e+00   2.6766754e+01
 9.6201333e+00   2.6985646e+01
 9.6256000e+00   2.7051339e+01
 9.6310667e+00   2.7419005e+01
 9.6365333e+00   2.7552127e+01
 9.6420000e+00   2.8301724e+01
 9.6474667e+00   2.8964719e+01
 9.6529333e+00   3.1350097e+01
 9.6584000e+00   3.4430721e+01
 9.6638667e+00   4.4248015e+01
 9.6693333e+00   5.7150121e+01
 9.6748000e+00   6.8811782e+01
 9.6802667e+00   1.0721086e+02
 9.6857333e+00   1.1132288e+02
 9.6912000e+00   1.3576256e+02
 9.6966667e+00   1.1613397e+02
 9.7021333e+00   1.6352922e+02
 9.7076000e+00   1.3338860e+02
 9.7130667e+00   1.5460222e+02
 9.7185333e+00   1.6200975e+02
 9.7240000e+00   1.5051120e+02
 9.7294667e+00   1.2982619e+02
 9.7349333e+00   1.5060098e+02
 9.7404000e+00   1.3044222e+02
 9.7458667e+00   1.0667803e+02
 9.7513333e+00   1.0741961e+02
 9.7568000e+00   8.6113241e+01
 9.7622667e+00   9.3457321e+01
 9.7677333e+00   6.7891440e+01
 9.7732000e+00   6.5003591e+01
 9.7786667e+00   5.8683167e+01
 9.7841333e+00   3.9012430e+01
 9.7896000e+00   3.6127111e+01
 9.7950667e+00   2.9580558e+01
 9.8005333e+00   2.8459703e+01
 9.8060000e+00   2.7400001e+01
 9.8114667e+00   2.6917121e+01
 9.8169333e+00   2.6676919e+01
 9.8224000e+00   2.6508834e+01
 9.8278667e+00   2.6347268e+01
 9.8333333e+00   2.6337292e+01
 9.8388000e+00   2.6291840e+01
 9.8442667e+00   2.6298876e+01
 9.8497333e+00   2.6450578e+01
 9.8552000e+00   2.6614595e+01
 9.8606667e+00   2.6953350e+01
 9.8661333e+00   2.7146321e+01
 9.8716000e+00   2.7571047e+01
 9.8770667e+00   2.8339298e+01
 9.8825333e+00   2.9168776e+01
 9.8880000e+00   3.0432482e+01
 9.8934667e+00   3.1906192e+01
 9.8989333e+00   3.3549081e+01
 9.9044000e+00   3.5392923e+01
 9.9098667e+00   3.7651072e+01
 9.9153333e+00   3.9653609e+01
 9.9208000e+00   4.1708867e+01
 9.9262667e+00   4.2985279e+01
 9.9317333e+00   4.4226923e+01
 9.9372000e+00   4.4639104e+01
 9.9426667e+00   4.4153423e+01
 9.9481333e+00   4.3580657e+01
 9.9536000e+00   4.2145757e+01
 9.9590667e+00   4.0358993e+01
 9.9645333e+00   3.8409220e+01
 9.9700000e+00   3.6453473e+01
 9.9754667e+00   3.4282068e+01
 9.9809333e+00   3.2543957e+01
 9.9864000e+00   3.0977255e+01
 9.9918667e+00   2.9584107e+01
 9.9973333e+00   2.8482189e+01
 1.0002800e+01   2.7740405e+01
 1.0008267e+01   2.6926788e+01
 1.0013733e+01   2.6653893e+01
 1.0019200e+01   2.6126066e+01
 1.0024667e+01   2.6077824e+01
 1.0030133e+01   2.5639182e+01
 1.0035600e+01   2.5741093e+01
 1.0041067e+01   2.5341623e+01
 1.0046533e+01   2.5495955e+01
 1.0052000e+01   2.5245314e+01
 1.0057467e+01   2.5455521e+01
 1.0062933e+01   2.5193319e+01
 1.0068400e+01   2.5624122e+01
 1.0073867e+01   2.5358824e+01
 1.0079333e+01   2.6461765e+01
 1.0084800e+01   2.5574939e+01
 1.0090267e+01   3.1516533e+01
 1.0095733e+01   2.6786481e+01
 1.0101200e+01   3.0146329e+01
 1.0106667e+01   4.8392047e+01
 1.0112133e+01   3.1078534e+01
 1.0117600e+01   5.9268600e+01
 1.0123067e+01   4.0191017e+01
 1.0128533e+01   5.6412820e+01
 1.0134000e+01   5.7015326e+01
 1.0139467e+01   8.5976017e+01
 1.0144933e+01   6.8704283e+01
 1.0150400e+01   9.5265526e+01
 1.0155867e+01   6.0793787e+01
 1.0161333e+01   7.5681881e+01
 1.0166800e+01   6.1193151e+01
 1.0172267e+01   7.1592704e+01
 1.0177733e+01   5.6402892e+01
 1.0183200e+01   5.9392007e+01
 1.0188667e+01   4.9033326e+01
 1.0194133e+01   5.0719178e+01
 1.0199600e+01   3.9052300e+01
 1.0205067e+01   4.1253369e+01
 1.0210533e+01   3.1398569e+01
 1.0216000e+01   3.4442396e+01
 1.0221467e+01   2.7919390e+01
 1.0226933e+01   2.6261019e+01
 1.0232400e+01   2.5535810e+01
 1.0237867e+01   2.5165827e+01
 1.0243333e+01   2.5024207e+01
 1.0248800e+01   2.4862940e+01
 1.0254267e+01   2.4854542e+01
 1.0259733e+01   2.4726540e+01
 1.0265200e+01   2.4765268e+01
 1.0270667e+01   2.4637078e+01
 1.0276133e+01   2.4728840e+01
 1.0281600e+01   2.4581970e+01
 1.0287067e+01   2.4629686e+01
 1.0292533e+01   2.4604829e+01
 1.0298000e+01   2.4612823e+01
 1.0303467e+01   2.4568871e+01
 1.0308933e+01   2.4689527e+01
 1.0314400e+01   2.4627923e+01
 1.0319867e+01   2.4637998e+01
 1.0325333e+01   2.4628828e+01
 1.0330800e+01   2.4792089e+01
 1.0336267e+01   2.4712984e+01
 1.0341733e+01   2.4830177e+01
 1.0347200e+01   2.4850725e+01
 1.0352667e+01   2.4824091e+01
 1.0358133e+01   2.4901827e+01
 1.0363600e+01   2.4861167e+01
 1.0369067e+01   2.4876735e+01
 1.0374533e+01   2.4866180e+01
 1.0380000e+01   2.4860762e+01
 1.0385467e+01   2.4840970e+01
 1.0390933e+01   2.4755320e+01
 1.0396400e+01   2.4700898e+01
 1.0401867e+01   2.4704216e+01
 1.0407333e+01   2.4622315e+01
 1.0412800e+01   2.4602478e+01
 1.0418267e+01   2.4504541e+01
 1.0423733e+01   2.4434386e+01
 1.0429200e+01   2.4415885e+01
 1.0434667e+01   2.4413442e+01
 1.0440133e+01   2.4365731e+01
 1.0445600e+01   2.4336914e+01
 1.0451067e+01   2.4336122e+01
 1.0456533e+01   2.4222337e+01
 1.0462000e+01   2.4247717e+01
 1.0467467e+01   2.4171592e+01
 1.0472933e+01   2.4201122e+01
 1.0478400e+01   2.4226489e+01
 1.0483867e+01   2.4183647e+01
 1.0489333e+01   2.4223502e+01
 1.0494800e+01   2.4296742e+01
 1.0500267e+01   2.4183031e+01
 1.0505733e+01   2.4537048e+01
 1.0511200e+01   2.4240169e+01
 1.0516667e+01   2.5324436e+01
 1.0522133e+01   2.4378011e+01
 1.0527600e+01   2.4440583e+01
 1.0533067e+01   2.4296419e+01
 1.0538533e+01   2.4338612e+01
 1.0544000e+01   2.4360542e+01
 1.0549467e+01   2.4393269e+01
 1.0554933e+01   2.4494552e+01
 1.0560400e+01   2.4422244e+01
 1.0565867e+01   2.4501873e+01
 1.0571333e+01   2.4512293e+01
 1.0576800e+01   2.4517319e+01
 1.0582267e+01   2.4546707e+01
 1.0587733e+01   2.4715722e+01
 1.0593200e+01   2.4706657e+01
 1.0598667e+01   2.4864072e+01
 1.0604133e+01   2.4959442e+01
 1.0609600e+01   2.5129094e+01
 1.0615067e+01   2.5209188e+01
 1.0620533e+01   2.5441346e+01
 1.0626000e+01   2.5680879e+01
 1.0631467e+01   2.5990913e+01
 1.0636933e+01   2.6436200e+01
 1.0642400e+01   2.6929658e+01
 1.0647867e+01   2.7649929e+01
 1.0653333e+01   2.8556933e+01
 1.0658800e+01   2.9812630e+01
 1.0664267e+01   3.1218092e+01
 1.0669733e+01   3.3306668e+01
 1.0675200e+01   3.5402069e+01
 1.0680667e+01   3.8451121e+01
 1.0686133e+01   4.1586718e+01
 1.0691600e+01   4.5521104e+01
 1.0697067e+01   4.9005561e+01
 1.0702533e+01   5.3426668e+01
 1.0708000e+01   5.6768729e+01
 1.0713467e+01   6.0397065e+01
 1.0718933e+01   6.3032548e+01
 1.0724400e+01   6.4948008e+01
 1.0729867e+01   6.4871517e+01
 1.0735333e+01   6.4792613e+01
 1.0740800e+01   6.2574360e+01
 1.0746267e+01   6.0611466e+01
 1.0751733e+01   5.6650947e+01
 1.0757200e+01   5.3452688e+01
 1.0762667e+01   4.9293818e+01
 1.0768133e+01   4.5392239e+01
 1.0773600e+01   4.1608085e+01
 1.0779067e+01   3.8667483e+01
 1.0784533e+01   3.5704266e+01
 1.0790000e+01   3.3486835e+01
 1.0795467e+01   3.1626839e+01
 1.0800933e+01   3.0123612e+01
 1.0806400e+01   2.9033595e+01
 1.0811867e+01   2.8081681e+01
 1.0817333e+01   2.7425146e+01
 1.0822800e+01   2.6914205e+01
 1.0828267e+01   2.6563812e+01
 1.0833733e+01   2.6245769e+01
 1.0839200e+01   2.5954284e+01
 1.0844667e+01   2.5798019e+01
 1.0850133e+01   2.5639522e+01
 1.0855600e+01   2.5465105e+01
 1.0861067e+01   2.5431168e+01
 1.0866533e+01   2.5339146e+01
 1.0872000e+01   2.5369304e+01
 1.0877467e+01   2.5279723e+01
 1.0882933e+01   2.5365375e+01
 1.0888400e+01   2.5351890e+01
 1.0893867e+01   2.5337275e+01
 1.0899333e+01   2.5364246e+01
 1.0904800e+01   2.5398323e+01
 1.0910267e+01   2.5539778e+01
 1.0915733e+01   2.5631252e+01
 1.0921200e+01   2.5832916e+01
 1.0926667e+01   2.6058403e+01
 1.0932133e+01   2.6272469e+01
 1.0937600e+01   2.6606735e+01
 1.0943067e+01   2.6906538e+01
 1.0948533e+01   2.7504472e+01
 1.0954000e+01   2.7910771e+01
 1.0959467e+01   2.8562666e+01
 1.0964933e+01   2.9193762e+01
 1.0970400e+01   2.9920767e+01
 1.0975867e+01   3.0737058e+01
 1.0981333e+01   3.1484171e+01
 1.0986800e+01   3.2241624e+01
 1.0992267e+01   3.2915740e+01
 1.0997733e+01   3.3515436e+01
 1.1003200e+01   3.3968399e+01
 1.1008667e+01   3.4183620e+01
 1.1014133e+01   3.4236691e+01
 1.1019600e+01   3.4176166e+01
 1.1025067e+01   3.3687843e+01
 1.1030533e+01   3.3261934e+01
 1.1036000e+01   3.2559317e+01
 1.1041467e+01   3.1936669e+01
 1.1046933e+01   3.1146541e+01
 1.1052400e+01   3.0507053e+01
 1.1057867e+01   2.9761007e+01
 1.1063333e+01   2.9215765e+01
 1.1068800e+01   2.8649403e+01
 1.1074267e+01   2.8379552e+01
 1.1079733e+01   2.7893167e+01
 1.1085200e+01   2.7618567e+01
 1.1090667e+01   2.7400712e+01
 1.1096133e+01   2.7292930e+01
 1.1101600e+01   2.7301515e+01
 1.1107067e+01   2.7349317e+01
 1.1112533e+01   2.7441611e+01
 1.1118000e+01   2.7731915e+01
 1.1123467e+01   2.7936863e+01
 1.1128933e+01   2.8434867e+01
 1.1134400e+01   2.8831278e+01
 1.1139867e+01   2.9566519e+01
 1.1145333e+01   3.0265843e+01
 1.1150800e+01   3.1277452e+01
 1.1156267e+01   3.2509134e+01
 1.1161733e+01   3.3975293e+01
 1.1167200e+01   3.5836927e+01
 1.1172667e+01   3.7928649e+01
 1.1178133e+01   4.0515606e+01
 1.1183600e+01   4.3363547e+01
 1.1189067e+01   4.6795452e+01
 1.1194533e+01   5.0214895e+01
