PWDR ff_004564_sum_norm_dc_0.tif Azm= 352.fxye Bank 1
2-Theta Angle (Degrees)
Intensity
       1500
 3.0000000e+00   4.5809462e+01
 3.0054667e+00   4.5645726e+01
 3.0109333e+00   4.5549093e+01
 3.0164000e+00   4.5477693e+01
 3.0218667e+00   4.5236702e+01
 3.0273333e+00   4.5141399e+01
 3.0328000e+00   4.5206249e+01
 3.0382667e+00   4.4796372e+01
 3.0437333e+00   4.4509443e+01
 3.0492000e+00   4.4396284e+01
 3.0546667e+00   4.3996367e+01
 3.0601333e+00   4.4233217e+01
 3.0656000e+00   4.4884233e+01
 3.0710667e+00   4.3362867e+01
 3.0765333e+00   4.3465258e+01
 3.0820000e+00   4.3160396e+01
 3.0874667e+00   4.2580541e+01
 3.0929333e+00   4.2674268e+01
 3.0984000e+00   4.2253674e+01
 3.1038667e+00   4.2337082e+01
 3.1093333e+00   4.1894476e+01
 3.1148000e+00   4.1895675e+01
 3.1202667e+00   4.1627953e+01
 3.1257333e+00   4.1846440e+01
 3.1312000e+00   4.1391580e+01
 3.1366667e+00   4.1478610e+01
 3.1421333e+00   4.1320207e+01
 3.1476000e+00   4.1145943e+01
 3.1530667e+00   4.1432258e+01
 3.1585333e+00   4.0745990e+01
 3.1640000e+00   4.0916944e+01
 3.1694667e+00   4.0638437e+01
 3.1749333e+00   4.0410368e+01
 3.1804000e+00   4.0172534e+01
 3.1858667e+00   4.0350279e+01
 3.1913333e+00   4.0134444e+01
 3.1968000e+00   4.0103061e+01
 3.2022667e+00   3.9986794e+01
 3.2077333e+00   3.9993206e+01
 3.2132000e+00   3.9829944e+01
 3.2186667e+00   3.9653176e+01
 3.2241333e+00   3.9590063e+01
 3.2296000e+00   3.9331126e+01
 3.2350667e+00   3.9211439e+01
 3.2405333e+00   3.9025805e+01
 3.2460000e+00   3.8968466e+01
 3.2514667e+00   3.8677956e+01
 3.2569333e+00   3.8498735e+01
 3.2624000e+00   3.8531990e+01
 3.2678667e+00   3.8632083e+01
 3.2733333e+00   3.8689141e+01
 3.2788000e+00   3.8394033e+01
 3.2842667e+00   3.8262504e+01
 3.2897333e+00   3.8329023e+01
 3.2952000e+00   3.8111466e+01
 3.3006667e+00   3.8025833e+01
 3.3061333e+00   3.7956563e+01
 3.3116000e+00   3.7876091e+01
 3.3170667e+00   3.7748226e+01
 3.3225333e+00   3.7661069e+01
 3.3280000e+00   3.7773425e+01
 3.3334667e+00   3.7531008e+01
 3.3389333e+00   3.7478696e+01
 3.3444000e+00   3.7462220e+01
 3.3498667e+00   3.7121832e+01
 3.3553333e+00   3.7310043e+01
 3.3608000e+00   3.7020540e+01
 3.3662667e+00   3.7058705e+01
 3.3717333e+00   3.6851632e+01
 3.3772000e+00   3.7133381e+01
 3.3826667e+00   3.6840178e+01
 3.3881333e+00   3.6811699e+01
 3.3936000e+00   3.6845632e+01
 3.3990667e+00   3.6748095e+01
 3.4045333e+00   3.6770796e+01
 3.4100000e+00   3.6863500e+01
 3.4154667e+00   3.6652302e+01
 3.4209333e+00   3.6711766e+01
 3.4264000e+00   3.6520098e+01
 3.4318667e+00   3.6786255e+01
 3.4373333e+00   3.6522197e+01
 3.4428000e+00   3.6510354e+01
 3.4482667e+00   3.6440715e+01
 3.4537333e+00   3.6438896e+01
 3.4592000e+00   3.6269236e+01
 3.4646667e+00   3.6143220e+01
 3.4701333e+00   3.6386456e+01
 3.4756000e+00   3.6245206e+01
 3.4810667e+00   3.6325546e+01
 3.4865333e+00   3.6130587e+01
 3.4920000e+00   3.6315287e+01
 3.4974667e+00   3.6268236e+01
 3.5029333e+00   3.6211356e+01
 3.5084000e+00   3.6161278e+01
 3.5138667e+00   3.6133230e+01
 3.5193333e+00   3.6060259e+01
 3.5248000e+00   3.6188986e+01
 3.5302667e+00   3.6233535e+01
 3.5357333e+00   3.6061370e+01
 3.5412000e+00   3.6135651e+01
 3.5466667e+00   3.6266102e+01
 3.5521333e+00   3.6161880e+01
 3.5576000e+00   3.6226635e+01
 3.5630667e+00   3.6329803e+01
 3.5685333e+00   3.6321199e+01
 3.5740000e+00   3.6264837e+01
 3.5794667e+00   3.6208569e+01
 3.5849333e+00   3.6073098e+01
 3.5904000e+00   3.6023322e+01
 3.5958667e+00   3.5989889e+01
 3.6013333e+00   3.6052448e+01
 3.6068000e+00   3.5932098e+01
 3.6122667e+00   3.6061759e+01
 3.6177333e+00   3.5822781e+01
 3.6232000e+00   3.5841143e+01
 3.6286667e+00   3.5805984e+01
 3.6341333e+00   3.6036520e+01
 3.6396000e+00   3.5905519e+01
 3.6450667e+00   3.5894487e+01
 3.6505333e+00   3.5882195e+01
 3.6560000e+00   3.5854105e+01
 3.6614667e+00   3.5895483e+01
 3.6669333e+00   3.6023075e+01
 3.6724000e+00   3.5952115e+01
 3.6778667e+00   3.6068146e+01
 3.6833333e+00   3.6079285e+01
 3.6888000e+00   3.5931152e+01
 3.6942667e+00   3.6154457e+01
 3.6997333e+00   3.5956792e+01
 3.7052000e+00   3.6094860e+01
 3.7106667e+00   3.6142363e+01
 3.7161333e+00   3.6267624e+01
 3.7216000e+00   3.6183582e+01
 3.7270667e+00   3.6226047e+01
 3.7325333e+00   3.6371606e+01
 3.7380000e+00   3.6254184e+01
 3.7434667e+00   3.6445141e+01
 3.7489333e+00   3.6296927e+01
 3.7544000e+00   3.6402603e+01
 3.7598667e+00   3.6428089e+01
 3.7653333e+00   3.6414305e+01
 3.7708000e+00   3.6495402e+01
 3.7762667e+00   3.6436046e+01
 3.7817333e+00   3.6629449e+01
 3.7872000e+00   3.6668455e+01
 3.7926667e+00   3.6650511e+01
 3.7981333e+00   3.6724496e+01
 3.8036000e+00   3.6805411e+01
 3.8090667e+00   3.6804376e+01
 3.8145333e+00   3.6717853e+01
 3.8200000e+00   3.6848028e+01
 3.8254667e+00   3.6830934e+01
 3.8309333e+00   3.7073618e+01
 3.8364000e+00   3.7172680e+01
 3.8418667e+00   3.6953998e+01
 3.8473333e+00   3.7297238e+01
 3.8528000e+00   3.7106637e+01
 3.8582667e+00   3.7328193e+01
 3.8637333e+00   3.7439315e+01
 3.8692000e+00   3.7681061e+01
 3.8746667e+00   3.7460891e+01
 3.8801333e+00   3.7725823e+01
 3.8856000e+00   3.7719371e+01
 3.8910667e+00   3.8001762e+01
 3.8965333e+00   3.8027904e+01
 3.9020000e+00   3.8232534e+01
 3.9074667e+00   3.8529684e+01
 3.9129333e+00   3.8682989e+01
 3.9184000e+00   3.8917274e+01
 3.9238667e+00   3.9108517e+01
 3.9293333e+00   3.9111158e+01
 3.9348000e+00   3.9168884e+01
 3.9402667e+00   3.9171559e+01
 3.9457333e+00   3.9137713e+01
 3.9512000e+00   3.9247224e+01
 3.9566667e+00   3.9105468e+01
 3.9621333e+00   3.9388631e+01
 3.9676000e+00   3.9100302e+01
 3.9730667e+00   3.9375921e+01
 3.9785333e+00   3.9299551e+01
 3.9840000e+00   3.9338366e+01
 3.9894667e+00   3.9626249e+01
 3.9949333e+00   3.9634836e+01
 4.0004000e+00   3.9839440e+01
 4.0058667e+00   3.9743799e+01
 4.0113333e+00   4.0030736e+01
 4.0168000e+00   4.0132250e+01
 4.0222667e+00   4.0477341e+01
 4.0277333e+00   4.0524996e+01
 4.0332000e+00   4.0984206e+01
 4.0386667e+00   4.1027618e+01
 4.0441333e+00   4.1825112e+01
 4.0496000e+00   4.2296003e+01
 4.0550667e+00   4.3273305e+01
 4.0605333e+00   4.4750771e+01
 4.0660000e+00   4.8989346e+01
 4.0714667e+00   5.3435288e+01
 4.0769333e+00   6.3733015e+01
 4.0824000e+00   7.9167761e+01
 4.0878667e+00   9.7281953e+01
 4.0933333e+00   1.2896656e+02
 4.0988000e+00   1.8577490e+02
 4.1042667e+00   2.0105176e+02
 4.1097333e+00   2.4144251e+02
 4.1152000e+00   2.3378217e+02
 4.1206667e+00   2.5588328e+02
 4.1261333e+00   2.3695825e+02
 4.1316000e+00   2.3069378e+02
 4.1370667e+00   2.2814687e+02
 4.1425333e+00   2.1649991e+02
 4.1480000e+00   1.5243151e+02
 4.1534667e+00   1.3649958e+02
 4.1589333e+00   9.3288318e+01
 4.1644000e+00   6.6753230e+01
 4.1698667e+00   5.7097067e+01
 4.1753333e+00   5.0716923e+01
 4.1808000e+00   4.7578602e+01
 4.1862667e+00   4.6714765e+01
 4.1917333e+00   4.5733931e+01
 4.1972000e+00   4.5594084e+01
 4.2026667e+00   4.5154742e+01
 4.2081333e+00   4.5168540e+01
 4.2136000e+00   4.4986550e+01
 4.2190667e+00   4.5092579e+01
 4.2245333e+00   4.4766410e+01
 4.2300000e+00   4.5039496e+01
 4.2354667e+00   4.4693385e+01
 4.2409333e+00   4.4942175e+01
 4.2464000e+00   4.4725991e+01
 4.2518667e+00   4.5045640e+01
 4.2573333e+00   4.4916326e+01
 4.2628000e+00   4.5068185e+01
 4.2682667e+00   4.5252609e+01
 4.2737333e+00   4.5141299e+01
 4.2792000e+00   4.5358899e+01
 4.2846667e+00   4.5062855e+01
 4.2901333e+00   4.5660480e+01
 4.2956000e+00   4.5198078e+01
 4.3010667e+00   4.6161533e+01
 4.3065333e+00   4.5392692e+01
 4.3120000e+00   4.8386944e+01
 4.3174667e+00   4.5699193e+01
 4.3229333e+00   4.7928158e+01
 4.3284000e+00   4.5955532e+01
 4.3338667e+00   4.6713693e+01
 4.3393333e+00   4.6343150e+01
 4.3448000e+00   4.6825333e+01
 4.3502667e+00   4.6718541e+01
 4.3557333e+00   4.7220071e+01
 4.3612000e+00   4.7454125e+01
 4.3666667e+00   4.7509778e+01
 4.3721333e+00   4.8285811e+01
 4.3776000e+00   4.8074968e+01
 4.3830667e+00   4.9052818e+01
 4.3885333e+00   4.8990348e+01
 4.3940000e+00   5.0465046e+01
 4.3994667e+00   5.0941750e+01
 4.4049333e+00   5.3278750e+01
 4.4104000e+00   5.6532207e+01
 4.4158667e+00   6.4094156e+01
 4.4213333e+00   7.7975387e+01
 4.4268000e+00   9.8416955e+01
 4.4322667e+00   1.3546212e+02
 4.4377333e+00   1.7070958e+02
 4.4432000e+00   2.0239408e+02
 4.4486667e+00   2.2455081e+02
 4.4541333e+00   2.4217920e+02
 4.4596000e+00   2.7610602e+02
 4.4650667e+00   2.8885679e+02
 4.4705333e+00   3.3596879e+02
 4.4760000e+00   3.5999390e+02
 4.4814667e+00   3.2067404e+02
 4.4869333e+00   3.0176250e+02
 4.4924000e+00   1.6261695e+02
 4.4978667e+00   1.3742215e+02
 4.5033333e+00   8.4581097e+01
 4.5088000e+00   9.1737178e+01
 4.5142667e+00   1.0217607e+02
 4.5197333e+00   1.2411239e+02
 4.5252000e+00   1.5031170e+02
 4.5306667e+00   1.7739656e+02
 4.5361333e+00   1.9110659e+02
 4.5416000e+00   2.0197911e+02
 4.5470667e+00   2.1152376e+02
 4.5525333e+00   2.5543903e+02
 4.5580000e+00   2.4151160e+02
 4.5634667e+00   2.6101326e+02
 4.5689333e+00   2.8844297e+02
 4.5744000e+00   2.1043553e+02
 4.5798667e+00   2.0683856e+02
 4.5853333e+00   1.1706217e+02
 4.5908000e+00   1.0852634e+02
 4.5962667e+00   7.6066052e+01
 4.6017333e+00   7.5490976e+01
 4.6072000e+00   6.8132594e+01
 4.6126667e+00   6.8414544e+01
 4.6181333e+00   7.0051756e+01
 4.6236000e+00   7.5082360e+01
 4.6290667e+00   8.5789349e+01
 4.6345333e+00   1.1053647e+02
 4.6400000e+00   1.6161194e+02
 4.6454667e+00   2.5771778e+02
 4.6509333e+00   3.7291688e+02
 4.6564000e+00   5.0207097e+02
 4.6618667e+00   6.4725443e+02
 4.6673333e+00   7.3113141e+02
 4.6728000e+00   7.8189604e+02
 4.6782667e+00   8.1978045e+02
 4.6837333e+00   8.4059989e+02
 4.6892000e+00   8.3753621e+02
 4.6946667e+00   8.7926842e+02
 4.7001333e+00   7.1956342e+02
 4.7056000e+00   6.8358570e+02
 4.7110667e+00   4.2139940e+02
 4.7165333e+00   3.5302841e+02
 4.7220000e+00   2.0215050e+02
 4.7274667e+00   1.7954672e+02
 4.7329333e+00   1.1172876e+02
 4.7384000e+00   9.0130817e+01
 4.7438667e+00   7.5447297e+01
 4.7493333e+00   6.7950711e+01
 4.7548000e+00   6.6924508e+01
 4.7602667e+00   6.2060592e+01
 4.7657333e+00   6.3899375e+01
 4.7712000e+00   6.0162892e+01
 4.7766667e+00   6.1884408e+01
 4.7821333e+00   5.9813686e+01
 4.7876000e+00   6.0839439e+01
 4.7930667e+00   6.0045688e+01
 4.7985333e+00   5.9701515e+01
 4.8040000e+00   6.1521875e+01
 4.8094667e+00   5.7720849e+01
 4.8149333e+00   6.2895750e+01
 4.8204000e+00   5.8229618e+01
 4.8258667e+00   6.2929005e+01
 4.8313333e+00   5.8967306e+01
 4.8368000e+00   6.3911079e+01
 4.8422667e+00   5.9598832e+01
 4.8477333e+00   6.4046299e+01
 4.8532000e+00   6.1475296e+01
 4.8586667e+00   6.4219641e+01
 4.8641333e+00   6.3802522e+01
 4.8696000e+00   6.4865400e+01
 4.8750667e+00   6.6458674e+01
 4.8805333e+00   6.4758695e+01
 4.8860000e+00   7.0404681e+01
 4.8914667e+00   6.4028985e+01
 4.8969333e+00   7.3842320e+01
 4.9024000e+00   6.6668065e+01
 4.9078667e+00   7.6971561e+01
 4.9133333e+00   7.0391876e+01
 4.9188000e+00   8.2387361e+01
 4.9242667e+00   7.8051222e+01
 4.9297333e+00   9.0668894e+01
 4.9352000e+00   1.0504062e+02
 4.9406667e+00   1.1287320e+02
 4.9461333e+00   1.4639316e+02
 4.9516000e+00   1.5497119e+02
 4.9570667e+00   2.3258905e+02
 4.9625333e+00   2.3962978e+02
 4.9680000e+00   2.6973470e+02
 4.9734667e+00   3.7489935e+02
 4.9789333e+00   3.6042321e+02
 4.9844000e+00   4.6401963e+02
 4.9898667e+00   5.0921669e+02
 4.9953333e+00   5.3328101e+02
 5.0008000e+00   5.8027333e+02
 5.0062667e+00   5.7824905e+02
 5.0117333e+00   5.6006241e+02
 5.0172000e+00   4.7702280e+02
 5.0226667e+00   4.0407337e+02
 5.0281333e+00   3.8676334e+02
 5.0336000e+00   2.5189829e+02
 5.0390667e+00   2.8310101e+02
 5.0445333e+00   1.6794004e+02
 5.0500000e+00   1.8719783e+02
 5.0554667e+00   1.0396236e+02
 5.0609333e+00   1.1650821e+02
 5.0664000e+00   7.8720962e+01
 5.0718667e+00   9.5069846e+01
 5.0773333e+00   7.0442955e+01
 5.0828000e+00   8.3450243e+01
 5.0882667e+00   6.8506709e+01
 5.0937333e+00   7.5389070e+01
 5.0992000e+00   6.7026883e+01
 5.1046667e+00   6.9909052e+01
 5.1101333e+00   6.5306366e+01
 5.1156000e+00   6.5450653e+01
 5.1210667e+00   6.3488897e+01
 5.1265333e+00   6.2534227e+01
 5.1320000e+00   6.1862285e+01
 5.1374667e+00   6.0135277e+01
 5.1429333e+00   6.0582672e+01
 5.1484000e+00   5.7100641e+01
 5.1538667e+00   5.9415002e+01
 5.1593333e+00   5.4196796e+01
 5.1648000e+00   5.9524846e+01
 5.1702667e+00   5.2726595e+01
 5.1757333e+00   5.8124283e+01
 5.1812000e+00   5.1913964e+01
 5.1866667e+00   5.5817341e+01
 5.1921333e+00   5.1647292e+01
 5.1976000e+00   5.4339267e+01
 5.2030667e+00   5.0761301e+01
 5.2085333e+00   5.2894445e+01
 5.2140000e+00   5.0049680e+01
 5.2194667e+00   5.1539292e+01
 5.2249333e+00   4.9778727e+01
 5.2304000e+00   4.9919668e+01
 5.2358667e+00   4.9603197e+01
 5.2413333e+00   4.8843739e+01
 5.2468000e+00   4.9327257e+01
 5.2522667e+00   4.7064111e+01
 5.2577333e+00   4.9861059e+01
 5.2632000e+00   4.6542722e+01
 5.2686667e+00   4.8776697e+01
 5.2741333e+00   4.6414753e+01
 5.2796000e+00   4.7989981e+01
 5.2850667e+00   4.5944361e+01
 5.2905333e+00   4.7244081e+01
 5.2960000e+00   4.5664209e+01
 5.3014667e+00   4.6525096e+01
 5.3069333e+00   4.5669611e+01
 5.3124000e+00   4.5887003e+01
 5.3178667e+00   4.5210426e+01
 5.3233333e+00   4.5642129e+01
 5.3288000e+00   4.4919797e+01
 5.3342667e+00   4.4539794e+01
 5.3397333e+00   4.5072618e+01
 5.3452000e+00   4.3619375e+01
 5.3506667e+00   4.5274646e+01
 5.3561333e+00   4.3482915e+01
 5.3616000e+00   4.4627045e+01
 5.3670667e+00   4.3344415e+01
 5.3725333e+00   4.4209542e+01
 5.3780000e+00   4.2867683e+01
 5.3834667e+00   4.3662699e+01
 5.3889333e+00   4.2850643e+01
 5.3944000e+00   4.3275441e+01
 5.3998667e+00   4.2798910e+01
 5.4053333e+00   4.2881683e+01
 5.4108000e+00   4.2479506e+01
 5.4162667e+00   4.2426720e+01
 5.4217333e+00   4.2387061e+01
 5.4272000e+00   4.1910029e+01
 5.4326667e+00   4.2473048e+01
 5.4381333e+00   4.1468002e+01
 5.4436000e+00   4.2408589e+01
 5.4490667e+00   4.1474290e+01
 5.4545333e+00   4.2111401e+01
 5.4600000e+00   4.1412683e+01
 5.4654667e+00   4.1943494e+01
 5.4709333e+00   4.1151001e+01
 5.4764000e+00   4.1632862e+01
 5.4818667e+00   4.1129681e+01
 5.4873333e+00   4.1441442e+01
 5.4928000e+00   4.1100544e+01
 5.4982667e+00   4.1360018e+01
 5.5037333e+00   4.1094916e+01
 5.5092000e+00   4.0997664e+01
 5.5146667e+00   4.1221424e+01
 5.5201333e+00   4.0699859e+01
 5.5256000e+00   4.1257245e+01
 5.5310667e+00   4.0525370e+01
 5.5365333e+00   4.1643282e+01
 5.5420000e+00   4.0908973e+01
 5.5474667e+00   4.5497802e+01
 5.5529333e+00   4.0845811e+01
 5.5584000e+00   4.2516596e+01
 5.5638667e+00   4.0591639e+01
 5.5693333e+00   4.0948988e+01
 5.5748000e+00   4.0529786e+01
 5.5802667e+00   4.0557655e+01
 5.5857333e+00   4.0398567e+01
 5.5912000e+00   4.0449610e+01
 5.5966667e+00   4.0548223e+01
 5.6021333e+00   4.0392378e+01
 5.6076000e+00   4.0662943e+01
 5.6130667e+00   4.0173448e+01
 5.6185333e+00   4.0785892e+01
 5.6240000e+00   4.0241409e+01
 5.6294667e+00   4.0502818e+01
 5.6349333e+00   4.0193347e+01
 5.6404000e+00   4.0455938e+01
 5.6458667e+00   4.0150461e+01
 5.6513333e+00   4.0432776e+01
 5.6568000e+00   4.0193669e+01
 5.6622667e+00   4.0508739e+01
 5.6677333e+00   4.0539368e+01
 5.6732000e+00   4.0708813e+01
 5.6786667e+00   4.1274074e+01
 5.6841333e+00   4.2184806e+01
 5.6896000e+00   4.2388987e+01
 5.6950667e+00   4.7357312e+01
 5.7005333e+00   4.5157039e+01
 5.7060000e+00   4.8219269e+01
 5.7114667e+00   5.1794793e+01
 5.7169333e+00   6.3073353e+01
 5.7224000e+00   6.6335893e+01
 5.7278667e+00   8.0459953e+01
 5.7333333e+00   1.1418649e+02
 5.7388000e+00   1.1056749e+02
 5.7442667e+00   1.1937353e+02
 5.7497333e+00   1.5053538e+02
 5.7552000e+00   1.3978947e+02
 5.7606667e+00   1.4430703e+02
 5.7661333e+00   1.7204670e+02
 5.7716000e+00   1.5486475e+02
 5.7770667e+00   1.8419571e+02
 5.7825333e+00   1.3481229e+02
 5.7880000e+00   1.2051024e+02
 5.7934667e+00   1.1636853e+02
 5.7989333e+00   8.6655338e+01
 5.8044000e+00   9.2610342e+01
 5.8098667e+00   7.7847090e+01
 5.8153333e+00   6.9990669e+01
 5.8208000e+00   5.2251409e+01
 5.8262667e+00   4.9144286e+01
 5.8317333e+00   4.4094328e+01
 5.8372000e+00   4.2078702e+01
 5.8426667e+00   4.1023624e+01
 5.8481333e+00   4.0451943e+01
 5.8536000e+00   4.0098474e+01
 5.8590667e+00   3.9728448e+01
 5.8645333e+00   3.9595934e+01
 5.8700000e+00   3.9239817e+01
 5.8754667e+00   3.9262096e+01
 5.8809333e+00   3.9009371e+01
 5.8864000e+00   3.9100520e+01
 5.8918667e+00   3.8578573e+01
 5.8973333e+00   3.8911753e+01
 5.9028000e+00   3.8315570e+01
 5.9082667e+00   3.8378391e+01
 5.9137333e+00   3.8363725e+01
 5.9192000e+00   3.8241802e+01
 5.9246667e+00   3.8288812e+01
 5.9301333e+00   3.8129232e+01
 5.9356000e+00   3.8105298e+01
 5.9410667e+00   3.8046156e+01
 5.9465333e+00   3.8131397e+01
 5.9520000e+00   3.7987884e+01
 5.9574667e+00   3.8141590e+01
 5.9629333e+00   3.8192722e+01
 5.9684000e+00   3.8150688e+01
 5.9738667e+00   3.8152585e+01
 5.9793333e+00   3.8187785e+01
 5.9848000e+00   3.8002390e+01
 5.9902667e+00   3.8312623e+01
 5.9957333e+00   3.8340065e+01
 6.0012000e+00   3.8573889e+01
 6.0066667e+00   3.8875039e+01
 6.0121333e+00   3.9291033e+01
 6.0176000e+00   4.0390335e+01
 6.0230667e+00   4.1759804e+01
 6.0285333e+00   4.4936548e+01
 6.0340000e+00   5.2241690e+01
 6.0394667e+00   6.0736905e+01
 6.0449333e+00   7.2363107e+01
 6.0504000e+00   9.5329613e+01
 6.0558667e+00   1.1582010e+02
 6.0613333e+00   1.3686703e+02
 6.0668000e+00   1.4984558e+02
 6.0722667e+00   1.6025100e+02
 6.0777333e+00   1.5708399e+02
 6.0832000e+00   1.5471357e+02
 6.0886667e+00   1.3349928e+02
 6.0941333e+00   1.1547415e+02
 6.0996000e+00   8.4152971e+01
 6.1050667e+00   7.5028390e+01
 6.1105333e+00   5.9463142e+01
 6.1160000e+00   5.5368383e+01
 6.1214667e+00   4.7510419e+01
 6.1269333e+00   4.3960161e+01
 6.1324000e+00   4.0616568e+01
 6.1378667e+00   3.9161648e+01
 6.1433333e+00   3.8490794e+01
 6.1488000e+00   3.7961225e+01
 6.1542667e+00   3.7830854e+01
 6.1597333e+00   3.7544370e+01
 6.1652000e+00   3.7336666e+01
 6.1706667e+00   3.7209755e+01
 6.1761333e+00   3.7190367e+01
 6.1816000e+00   3.7015585e+01
 6.1870667e+00   3.7059087e+01
 6.1925333e+00   3.6867713e+01
 6.1980000e+00   3.6825036e+01
 6.2034667e+00   3.6675640e+01
 6.2089333e+00   3.6704088e+01
 6.2144000e+00   3.6539386e+01
 6.2198667e+00   3.6605227e+01
 6.2253333e+00   3.6603023e+01
 6.2308000e+00   3.6674229e+01
 6.2362667e+00   3.6719314e+01
 6.2417333e+00   3.6374104e+01
 6.2472000e+00   3.6479603e+01
 6.2526667e+00   3.6514094e+01
 6.2581333e+00   3.6779791e+01
 6.2636000e+00   3.6563664e+01
 6.2690667e+00   3.7499101e+01
 6.2745333e+00   3.6796923e+01
 6.2800000e+00   3.6955158e+01
 6.2854667e+00   3.6869120e+01
 6.2909333e+00   3.6382622e+01
 6.2964000e+00   3.6237928e+01
 6.3018667e+00   3.6157624e+01
 6.3073333e+00   3.6030560e+01
 6.3128000e+00   3.6110639e+01
 6.3182667e+00   3.6110900e+01
 6.3237333e+00   3.6215198e+01
 6.3292000e+00   3.6252412e+01
 6.3346667e+00   3.6166456e+01
 6.3401333e+00   3.6493628e+01
 6.3456000e+00   3.5994482e+01
 6.3510667e+00   3.6159602e+01
 6.3565333e+00   3.5985644e+01
 6.3620000e+00   3.6220818e+01
 6.3674667e+00   3.6116780e+01
 6.3729333e+00   3.6571534e+01
 6.3784000e+00   3.6552393e+01
 6.3838667e+00   3.7173899e+01
 6.3893333e+00   3.7790156e+01
 6.3948000e+00   3.8880368e+01
 6.4002667e+00   4.0666735e+01
 6.4057333e+00   4.2008216e+01
 6.4112000e+00   4.5045327e+01
 6.4166667e+00   4.9600656e+01
 6.4221333e+00   5.4978706e+01
 6.4276000e+00   6.2136175e+01
 6.4330667e+00   6.7900038e+01
 6.4385333e+00   6.8401169e+01
 6.4440000e+00   6.5544968e+01
 6.4494667e+00   6.1185838e+01
 6.4549333e+00   5.3739990e+01
 6.4604000e+00   4.8428311e+01
 6.4658667e+00   4.4769907e+01
 6.4713333e+00   4.1121863e+01
 6.4768000e+00   3.9638996e+01
 6.4822667e+00   3.7953620e+01
 6.4877333e+00   3.7558787e+01
 6.4932000e+00   3.6916088e+01
 6.4986667e+00   3.6682978e+01
 6.5041333e+00   3.6336587e+01
 6.5096000e+00   3.6109830e+01
 6.5150667e+00   3.6175634e+01
 6.5205333e+00   3.5781014e+01
 6.5260000e+00   3.6110651e+01
 6.5314667e+00   3.5789772e+01
 6.5369333e+00   3.6146460e+01
 6.5424000e+00   3.5870900e+01
 6.5478667e+00   3.5994652e+01
 6.5533333e+00   3.5898516e+01
 6.5588000e+00   3.5846808e+01
 6.5642667e+00   3.5848613e+01
 6.5697333e+00   3.5701110e+01
 6.5752000e+00   3.5827392e+01
 6.5806667e+00   3.5924614e+01
 6.5861333e+00   3.5765010e+01
 6.5916000e+00   3.5774217e+01
 6.5970667e+00   3.5779860e+01
 6.6025333e+00   3.5887330e+01
 6.6080000e+00   3.5821503e+01
 6.6134667e+00   3.5905701e+01
 6.6189333e+00   3.5907938e+01
 6.6244000e+00   3.5656888e+01
 6.6298667e+00   3.5837604e+01
 6.6353333e+00   3.5796777e+01
 6.6408000e+00   3.5893651e+01
 6.6462667e+00   3.5867842e+01
 6.6517333e+00   3.5952127e+01
 6.6572000e+00   3.5815244e+01
 6.6626667e+00   3.6078927e+01
 6.6681333e+00   3.5832670e+01
 6.6736000e+00   3.6005731e+01
 6.6790667e+00   3.5884090e+01
 6.6845333e+00   3.6230284e+01
 6.6900000e+00   3.5800172e+01
 6.6954667e+00   3.6100094e+01
 6.7009333e+00   3.5756142e+01
 6.7064000e+00   3.6271858e+01
 6.7118667e+00   3.6047166e+01
 6.7173333e+00   3.6188075e+01
 6.7228000e+00   3.6135423e+01
 6.7282667e+00   3.6101446e+01
 6.7337333e+00   3.6160306e+01
 6.7392000e+00   3.6109017e+01
 6.7446667e+00   3.6209599e+01
 6.7501333e+00   3.6249316e+01
 6.7556000e+00   3.6296328e+01
 6.7610667e+00   3.6322874e+01
 6.7665333e+00   3.6360146e+01
 6.7720000e+00   3.6340536e+01
 6.7774667e+00   3.6380518e+01
 6.7829333e+00   3.6559382e+01
 6.7884000e+00   3.6557461e+01
 6.7938667e+00   3.6635411e+01
 6.7993333e+00   3.6599009e+01
 6.8048000e+00   3.6590352e+01
 6.8102667e+00   3.6731259e+01
 6.8157333e+00   3.6831255e+01
 6.8212000e+00   3.6645263e+01
 6.8266667e+00   3.6905766e+01
 6.8321333e+00   3.6694718e+01
 6.8376000e+00   3.6865508e+01
 6.8430667e+00   3.6837761e+01
 6.8485333e+00   3.7009060e+01
 6.8540000e+00   3.6842059e+01
 6.8594667e+00   3.7132773e+01
 6.8649333e+00   3.7034038e+01
 6.8704000e+00   3.7147851e+01
 6.8758667e+00   3.7088017e+01
 6.8813333e+00   3.7265906e+01
 6.8868000e+00   3.7326394e+01
 6.8922667e+00   3.7329356e+01
 6.8977333e+00   3.7413894e+01
 6.9032000e+00   3.7377979e+01
 6.9086667e+00   3.7627465e+01
 6.9141333e+00   3.7485457e+01
 6.9196000e+00   3.7671215e+01
 6.9250667e+00   3.7573001e+01
 6.9305333e+00   3.7774865e+01
 6.9360000e+00   3.7749109e+01
 6.9414667e+00   3.7988101e+01
 6.9469333e+00   3.7885956e+01
 6.9524000e+00   3.8160159e+01
 6.9578667e+00   3.8141883e+01
 6.9633333e+00   3.8201433e+01
 6.9688000e+00   3.8214083e+01
 6.9742667e+00   3.8387086e+01
 6.9797333e+00   3.8393800e+01
 6.9852000e+00   3.8584047e+01
 6.9906667e+00   3.8602799e+01
 6.9961333e+00   3.8641271e+01
 7.0016000e+00   3.8903278e+01
 7.0070667e+00   3.8935338e+01
 7.0125333e+00   3.9137612e+01
 7.0180000e+00   3.9275509e+01
 7.0234667e+00   3.9893714e+01
 7.0289333e+00   3.9300214e+01
 7.0344000e+00   4.0841912e+01
 7.0398667e+00   3.9798213e+01
 7.0453333e+00   4.0299779e+01
 7.0508000e+00   4.0123170e+01
 7.0562667e+00   4.0456035e+01
 7.0617333e+00   4.0501906e+01
 7.0672000e+00   4.0833257e+01
 7.0726667e+00   4.1529673e+01
 7.0781333e+00   4.2572170e+01
 7.0836000e+00   4.3068974e+01
 7.0890667e+00   4.6688561e+01
 7.0945333e+00   5.0348873e+01
 7.1000000e+00   5.3424567e+01
 7.1054667e+00   6.6516603e+01
 7.1109333e+00   7.4925542e+01
 7.1164000e+00   9.2322577e+01
 7.1218667e+00   1.0968392e+02
 7.1273333e+00   1.3153857e+02
 7.1328000e+00   1.6367990e+02
 7.1382667e+00   1.9715139e+02
 7.1437333e+00   1.7640462e+02
 7.1492000e+00   1.9871716e+02
 7.1546667e+00   1.6268296e+02
 7.1601333e+00   1.1888390e+02
 7.1656000e+00   1.0011001e+02
 7.1710667e+00   8.2861120e+01
 7.1765333e+00   6.7078620e+01
 7.1820000e+00   5.9788348e+01
 7.1874667e+00   5.2352413e+01
 7.1929333e+00   4.7231886e+01
 7.1984000e+00   4.4591005e+01
 7.2038667e+00   4.3215804e+01
 7.2093333e+00   4.2376256e+01
 7.2148000e+00   4.2013017e+01
 7.2202667e+00   4.1692158e+01
 7.2257333e+00   4.1139150e+01
 7.2312000e+00   4.1263077e+01
 7.2366667e+00   4.0978992e+01
 7.2421333e+00   4.1017162e+01
 7.2476000e+00   4.0647033e+01
 7.2530667e+00   4.1102078e+01
 7.2585333e+00   4.0476470e+01
 7.2640000e+00   4.0915233e+01
 7.2694667e+00   4.0534599e+01
 7.2749333e+00   4.0758220e+01
 7.2804000e+00   4.0477695e+01
 7.2858667e+00   4.0774387e+01
 7.2913333e+00   4.0454267e+01
 7.2968000e+00   4.0611371e+01
 7.3022667e+00   4.0512305e+01
 7.3077333e+00   4.0548050e+01
 7.3132000e+00   4.0428201e+01
 7.3186667e+00   4.0407455e+01
 7.3241333e+00   4.0486892e+01
 7.3296000e+00   4.0329147e+01
 7.3350667e+00   4.0483312e+01
 7.3405333e+00   4.0211834e+01
 7.3460000e+00   4.0433222e+01
 7.3514667e+00   4.0245912e+01
 7.3569333e+00   4.0494004e+01
 7.3624000e+00   4.0134699e+01
 7.3678667e+00   4.0532519e+01
 7.3733333e+00   4.0218416e+01
 7.3788000e+00   4.0368193e+01
 7.3842667e+00   4.0252340e+01
 7.3897333e+00   4.0365965e+01
 7.3952000e+00   4.0250729e+01
 7.4006667e+00   4.0547417e+01
 7.4061333e+00   4.0325536e+01
 7.4116000e+00   4.0453121e+01
 7.4170667e+00   4.0327463e+01
 7.4225333e+00   4.0359221e+01
 7.4280000e+00   4.0448886e+01
 7.4334667e+00   4.0433309e+01
 7.4389333e+00   4.0594613e+01
 7.4444000e+00   4.0457022e+01
 7.4498667e+00   4.0538038e+01
 7.4553333e+00   4.0417258e+01
 7.4608000e+00   4.0519280e+01
 7.4662667e+00   4.0664496e+01
 7.4717333e+00   4.0750804e+01
 7.4772000e+00   4.0682899e+01
 7.4826667e+00   4.0745571e+01
 7.4881333e+00   4.0780656e+01
 7.4936000e+00   4.0785853e+01
 7.4990667e+00   4.0906107e+01
 7.5045333e+00   4.0900035e+01
 7.5100000e+00   4.0984208e+01
 7.5154667e+00   4.0984358e+01
 7.5209333e+00   4.1045989e+01
 7.5264000e+00   4.0717741e+01
 7.5318667e+00   4.1043690e+01
 7.5373333e+00   4.0935103e+01
 7.5428000e+00   4.1080054e+01
 7.5482667e+00   4.1006472e+01
 7.5537333e+00   4.1226986e+01
 7.5592000e+00   4.1060606e+01
 7.5646667e+00   4.1216063e+01
 7.5701333e+00   4.1165286e+01
 7.5756000e+00   4.1170618e+01
 7.5810667e+00   4.1313762e+01
 7.5865333e+00   4.1454160e+01
 7.5920000e+00   4.1307434e+01
 7.5974667e+00   4.1700242e+01
 7.6029333e+00   4.1397680e+01
 7.6084000e+00   4.1658162e+01
 7.6138667e+00   4.1521614e+01
 7.6193333e+00   4.1800473e+01
 7.6248000e+00   4.1585409e+01
 7.6302667e+00   4.1803932e+01
 7.6357333e+00   4.1817076e+01
 7.6412000e+00   4.1818176e+01
 7.6466667e+00   4.2098224e+01
 7.6521333e+00   4.2055568e+01
 7.6576000e+00   4.2015453e+01
 7.6630667e+00   4.2194719e+01
 7.6685333e+00   4.2237857e+01
 7.6740000e+00   4.2276065e+01
 7.6794667e+00   4.2470974e+01
 7.6849333e+00   4.2487677e+01
 7.6904000e+00   4.2623316e+01
 7.6958667e+00   4.2668961e+01
 7.7013333e+00   4.2881682e+01
 7.7068000e+00   4.2843013e+01
 7.7122667e+00   4.3025662e+01
 7.7177333e+00   4.2971681e+01
 7.7232000e+00   4.3068591e+01
 7.7286667e+00   4.3299775e+01
 7.7341333e+00   4.3267973e+01
 7.7396000e+00   4.3542289e+01
 7.7450667e+00   4.3534812e+01
 7.7505333e+00   4.3968513e+01
 7.7560000e+00   4.3701750e+01
 7.7614667e+00   4.4162565e+01
 7.7669333e+00   4.4397031e+01
 7.7724000e+00   4.4682414e+01
 7.7778667e+00   4.4868178e+01
 7.7833333e+00   4.5085107e+01
 7.7888000e+00   4.5537828e+01
 7.7942667e+00   4.5616746e+01
 7.7997333e+00   4.6782288e+01
 7.8052000e+00   4.9597252e+01
 7.8106667e+00   4.7817366e+01
 7.8161333e+00   5.2175562e+01
 7.8216000e+00   5.3843174e+01
 7.8270667e+00   5.8802576e+01
 7.8325333e+00   6.9373638e+01
 7.8380000e+00   8.4413355e+01
 7.8434667e+00   1.0240974e+02
 7.8489333e+00   1.2308890e+02
 7.8544000e+00   1.3967496e+02
 7.8598667e+00   1.5846159e+02
 7.8653333e+00   1.7367185e+02
 7.8708000e+00   1.8534797e+02
 7.8762667e+00   1.8278110e+02
 7.8817333e+00   1.7758274e+02
 7.8872000e+00   1.5351971e+02
 7.8926667e+00   1.2561127e+02
 7.8981333e+00   1.1129895e+02
 7.9036000e+00   9.6075896e+01
 7.9090667e+00   8.3668648e+01
 7.9145333e+00   7.4565368e+01
 7.9200000e+00   6.3564420e+01
 7.9254667e+00   5.7813546e+01
 7.9309333e+00   5.4430217e+01
 7.9364000e+00   5.2489642e+01
 7.9418667e+00   4.9992827e+01
 7.9473333e+00   4.9119918e+01
 7.9528000e+00   4.8080778e+01
 7.9582667e+00   4.7729672e+01
 7.9637333e+00   4.7235651e+01
 7.9692000e+00   4.7193819e+01
 7.9746667e+00   4.6785054e+01
 7.9801333e+00   4.7132530e+01
 7.9856000e+00   4.6720408e+01
 7.9910667e+00   4.6964769e+01
 7.9965333e+00   4.6808511e+01
 8.0020000e+00   4.6835191e+01
 8.0074667e+00   4.6824798e+01
 8.0129333e+00   4.6966873e+01
 8.0184000e+00   4.7109010e+01
 8.0238667e+00   4.6911802e+01
 8.0293333e+00   4.7504221e+01
 8.0348000e+00   4.7058531e+01
 8.0402667e+00   4.7653872e+01
 8.0457333e+00   4.7156419e+01
 8.0512000e+00   4.7908043e+01
 8.0566667e+00   4.7676121e+01
 8.0621333e+00   4.8260276e+01
 8.0676000e+00   4.8169012e+01
 8.0730667e+00   4.8560167e+01
 8.0785333e+00   4.8949343e+01
 8.0840000e+00   4.9357936e+01
 8.0894667e+00   5.0532459e+01
 8.0949333e+00   5.1010400e+01
 8.1004000e+00   5.5529719e+01
 8.1058667e+00   5.7429030e+01
 8.1113333e+00   7.0800857e+01
 8.1168000e+00   7.2375507e+01
 8.1222667e+00   8.8985884e+01
 8.1277333e+00   9.1033054e+01
 8.1332000e+00   1.2154414e+02
 8.1386667e+00   1.2887113e+02
 8.1441333e+00   1.6307992e+02
 8.1496000e+00   1.3927659e+02
 8.1550667e+00   1.5547752e+02
 8.1605333e+00   1.2472432e+02
 8.1660000e+00   1.4570027e+02
 8.1714667e+00   1.2057049e+02
 8.1769333e+00   1.5445949e+02
 8.1824000e+00   1.2124897e+02
 8.1878667e+00   1.8111630e+02
 8.1933333e+00   1.4369317e+02
 8.1988000e+00   1.3447099e+02
 8.2042667e+00   1.3723682e+02
 8.2097333e+00   9.9675723e+01
 8.2152000e+00   1.2409346e+02
 8.2206667e+00   7.3110589e+01
 8.2261333e+00   8.7631184e+01
 8.2316000e+00   6.3266880e+01
 8.2370667e+00   6.5980192e+01
 8.2425333e+00   6.2501893e+01
 8.2480000e+00   6.3006640e+01
 8.2534667e+00   6.1312188e+01
 8.2589333e+00   6.1082137e+01
 8.2644000e+00   5.8566675e+01
 8.2698667e+00   5.6681833e+01
 8.2753333e+00   5.3659325e+01
 8.2808000e+00   5.2588948e+01
 8.2862667e+00   5.0914240e+01
 8.2917333e+00   5.0681109e+01
 8.2972000e+00   4.9892055e+01
 8.3026667e+00   4.9880515e+01
 8.3081333e+00   4.9314898e+01
 8.3136000e+00   4.9410470e+01
 8.3190667e+00   4.9140385e+01
 8.3245333e+00   4.9315111e+01
 8.3300000e+00   4.9250565e+01
 8.3354667e+00   4.9399590e+01
 8.3409333e+00   4.9344499e+01
 8.3464000e+00   4.9577127e+01
 8.3518667e+00   4.9881806e+01
 8.3573333e+00   5.0124770e+01
 8.3628000e+00   5.1331365e+01
 8.3682667e+00   5.2080490e+01
 8.3737333e+00   5.5475667e+01
 8.3792000e+00   5.9548978e+01
 8.3846667e+00   6.7946352e+01
 8.3901333e+00   7.9512280e+01
 8.3956000e+00   1.0342388e+02
 8.4010667e+00   1.1358827e+02
 8.4065333e+00   1.3523553e+02
 8.4120000e+00   1.3909526e+02
 8.4174667e+00   1.4687582e+02
 8.4229333e+00   1.4961013e+02
 8.4284000e+00   1.4800005e+02
 8.4338667e+00   1.4234130e+02
 8.4393333e+00   1.3260465e+02
 8.4448000e+00   1.1785947e+02
 8.4502667e+00   1.0100756e+02
 8.4557333e+00   8.5912119e+01
 8.4612000e+00   7.1857244e+01
 8.4666667e+00   6.5376198e+01
 8.4721333e+00   5.7130048e+01
 8.4776000e+00   5.4874989e+01
 8.4830667e+00   5.2447522e+01
 8.4885333e+00   5.2559778e+01
 8.4940000e+00   5.2306503e+01
 8.4994667e+00   5.5201201e+01
 8.5049333e+00   5.7989055e+01
 8.5104000e+00   6.4814256e+01
 8.5158667e+00   7.1816675e+01
 8.5213333e+00   8.6907303e+01
 8.5268000e+00   9.0646525e+01
 8.5322667e+00   1.0285733e+02
 8.5377333e+00   1.0656385e+02
 8.5432000e+00   1.1303519e+02
 8.5486667e+00   1.1268927e+02
 8.5541333e+00   1.0944614e+02
 8.5596000e+00   9.9203052e+01
 8.5650667e+00   8.8315737e+01
 8.5705333e+00   7.6603028e+01
 8.5760000e+00   6.6956841e+01
 8.5814667e+00   6.0201990e+01
 8.5869333e+00   5.5490075e+01
 8.5924000e+00   5.2618431e+01
 8.5978667e+00   5.0176618e+01
 8.6033333e+00   4.9019798e+01
 8.6088000e+00   4.7836570e+01
 8.6142667e+00   4.7684665e+01
 8.6197333e+00   4.6973767e+01
 8.6252000e+00   4.7047609e+01
 8.6306667e+00   4.6645672e+01
 8.6361333e+00   4.6559011e+01
 8.6416000e+00   4.6108475e+01
 8.6470667e+00   4.6100508e+01
 8.6525333e+00   4.5921246e+01
 8.6580000e+00   4.5890414e+01
 8.6634667e+00   4.5709370e+01
 8.6689333e+00   4.5610024e+01
 8.6744000e+00   4.5384645e+01
 8.6798667e+00   4.5339694e+01
 8.6853333e+00   4.5211962e+01
 8.6908000e+00   4.5171684e+01
 8.6962667e+00   4.4975354e+01
 8.7017333e+00   4.4875469e+01
 8.7072000e+00   4.4950784e+01
 8.7126667e+00   4.4605313e+01
 8.7181333e+00   4.4881101e+01
 8.7236000e+00   4.4370799e+01
 8.7290667e+00   4.4682020e+01
 8.7345333e+00   4.4238733e+01
 8.7400000e+00   4.4457898e+01
 8.7454667e+00   4.4127337e+01
 8.7509333e+00   4.4274897e+01
 8.7564000e+00   4.3962641e+01
 8.7618667e+00   4.4024417e+01
 8.7673333e+00   4.3904524e+01
 8.7728000e+00   4.3873692e+01
 8.7782667e+00   4.3733520e+01
 8.7837333e+00   4.3742859e+01
 8.7892000e+00   4.3776900e+01
 8.7946667e+00   4.3635960e+01
 8.8001333e+00   4.3706205e+01
 8.8056000e+00   4.3519129e+01
 8.8110667e+00   4.3589551e+01
 8.8165333e+00   4.3373593e+01
 8.8220000e+00   4.3443644e+01
 8.8274667e+00   4.3111525e+01
 8.8329333e+00   4.3361112e+01
 8.8384000e+00   4.2980224e+01
 8.8438667e+00   4.3174914e+01
 8.8493333e+00   4.2857486e+01
 8.8548000e+00   4.3159284e+01
 8.8602667e+00   4.2716304e+01
 8.8657333e+00   4.3050884e+01
 8.8712000e+00   4.2820724e+01
 8.8766667e+00   4.3178033e+01
 8.8821333e+00   4.2972433e+01
 8.8876000e+00   4.3606869e+01
 8.8930667e+00   4.4022689e+01
 8.8985333e+00   4.5254403e+01
 8.9040000e+00   4.6714917e+01
 8.9094667e+00   4.9011013e+01
 8.9149333e+00   5.1645514e+01
 8.9204000e+00   5.3447090e+01
 8.9258667e+00   5.4472426e+01
 8.9313333e+00   5.2236025e+01
 8.9368000e+00   5.2881195e+01
 8.9422667e+00   5.1362290e+01
 8.9477333e+00   5.2439442e+01
 8.9532000e+00   5.3299526e+01
 8.9586667e+00   5.1391535e+01
 8.9641333e+00   4.7634199e+01
 8.9696000e+00   4.5131890e+01
 8.9750667e+00   4.3713385e+01
 8.9805333e+00   4.2924122e+01
 8.9860000e+00   4.2348961e+01
 8.9914667e+00   4.1950207e+01
 8.9969333e+00   4.1640317e+01
 9.0024000e+00   4.1445418e+01
 9.0078667e+00   4.1526596e+01
 9.0133333e+00   4.1092507e+01
 9.0188000e+00   4.1209105e+01
 9.0242667e+00   4.1049632e+01
 9.0297333e+00   4.1098194e+01
 9.0352000e+00   4.0948498e+01
 9.0406667e+00   4.1026930e+01
 9.0461333e+00   4.0924962e+01
 9.0516000e+00   4.0850217e+01
 9.0570667e+00   4.0861375e+01
 9.0625333e+00   4.0981449e+01
 9.0680000e+00   4.0929655e+01
 9.0734667e+00   4.1345615e+01
 9.0789333e+00   4.1620630e+01
 9.0844000e+00   4.2458545e+01
 9.0898667e+00   4.3123220e+01
 9.0953333e+00   4.4051830e+01
 9.1008000e+00   4.4880451e+01
 9.1062667e+00   4.5481061e+01
 9.1117333e+00   4.5112445e+01
 9.1172000e+00   4.4936984e+01
 9.1226667e+00   4.4887774e+01
 9.1281333e+00   4.4751331e+01
 9.1336000e+00   4.4376338e+01
 9.1390667e+00   4.3906231e+01
 9.1445333e+00   4.2667425e+01
 9.1500000e+00   4.1652200e+01
 9.1554667e+00   4.0891750e+01
 9.1609333e+00   4.0371677e+01
 9.1664000e+00   4.0213784e+01
 9.1718667e+00   4.0025536e+01
 9.1773333e+00   3.9766627e+01
 9.1828000e+00   3.9567994e+01
 9.1882667e+00   3.9554352e+01
 9.1937333e+00   3.9359557e+01
 9.1992000e+00   3.9488858e+01
 9.2046667e+00   3.9199879e+01
 9.2101333e+00   3.9377028e+01
 9.2156000e+00   3.9038127e+01
 9.2210667e+00   3.9284423e+01
 9.2265333e+00   3.9007411e+01
 9.2320000e+00   3.9225583e+01
 9.2374667e+00   3.8907824e+01
 9.2429333e+00   3.9171099e+01
 9.2484000e+00   3.9041791e+01
 9.2538667e+00   3.8949008e+01
 9.2593333e+00   3.8827720e+01
 9.2648000e+00   3.8886659e+01
 9.2702667e+00   3.8851831e+01
 9.2757333e+00   3.9085092e+01
 9.2812000e+00   3.8782726e+01
 9.2866667e+00   3.9088194e+01
 9.2921333e+00   3.9125903e+01
 9.2976000e+00   3.8807839e+01
 9.3030667e+00   3.9859591e+01
 9.3085333e+00   3.9170185e+01
 9.3140000e+00   3.8837346e+01
 9.3194667e+00   3.9025274e+01
 9.3249333e+00   3.9157035e+01
 9.3304000e+00   3.9560952e+01
 9.3358667e+00   4.0164826e+01
 9.3413333e+00   4.1118535e+01
 9.3468000e+00   4.2776793e+01
 9.3522667e+00   4.4876895e+01
 9.3577333e+00   4.6704091e+01
 9.3632000e+00   4.9257403e+01
 9.3686667e+00   5.0513275e+01
 9.3741333e+00   5.0631116e+01
 9.3796000e+00   5.0484412e+01
 9.3850667e+00   4.9808236e+01
 9.3905333e+00   4.9139826e+01
 9.3960000e+00   4.9107245e+01
 9.4014667e+00   4.7828671e+01
 9.4069333e+00   4.6537561e+01
 9.4124000e+00   4.3924490e+01
 9.4178667e+00   4.2576224e+01
 9.4233333e+00   4.0985881e+01
 9.4288000e+00   4.0213310e+01
 9.4342667e+00   3.9292027e+01
 9.4397333e+00   3.9265753e+01
 9.4452000e+00   3.8830845e+01
 9.4506667e+00   3.8921874e+01
 9.4561333e+00   3.8673678e+01
 9.4616000e+00   3.8811656e+01
 9.4670667e+00   3.8813989e+01
 9.4725333e+00   3.8767239e+01
 9.4780000e+00   3.8970637e+01
 9.4834667e+00   3.8817089e+01
 9.4889333e+00   3.9123770e+01
 9.4944000e+00   3.9004873e+01
 9.4998667e+00   3.9334121e+01
 9.5053333e+00   3.9518601e+01
 9.5108000e+00   4.0173263e+01
 9.5162667e+00   4.0488764e+01
 9.5217333e+00   4.2607790e+01
 9.5272000e+00   4.6022284e+01
 9.5326667e+00   4.5959391e+01
 9.5381333e+00   5.1278225e+01
 9.5436000e+00   6.1882633e+01
 9.5490667e+00   7.5013206e+01
 9.5545333e+00   8.4748733e+01
 9.5600000e+00   8.3684457e+01
 9.5654667e+00   1.0118842e+02
 9.5709333e+00   9.8995233e+01
 9.5764000e+00   9.6982563e+01
 9.5818667e+00   1.0551329e+02
 9.5873333e+00   8.9636648e+01
 9.5928000e+00   9.6245533e+01
 9.5982667e+00   8.6959878e+01
 9.6037333e+00   8.0677246e+01
 9.6092000e+00   7.4975209e+01
 9.6146667e+00   8.5549697e+01
 9.6201333e+00   7.9208267e+01
 9.6256000e+00   7.8957677e+01
 9.6310667e+00   6.9282546e+01
 9.6365333e+00   5.8867457e+01
 9.6420000e+00   4.8435069e+01
 9.6474667e+00   4.3407281e+01
 9.6529333e+00   4.0475637e+01
 9.6584000e+00   3.9393950e+01
 9.6638667e+00   3.8890862e+01
 9.6693333e+00   3.8289924e+01
 9.6748000e+00   3.8185784e+01
 9.6802667e+00   3.7959277e+01
 9.6857333e+00   3.7941563e+01
 9.6912000e+00   3.7789018e+01
 9.6966667e+00   3.7684165e+01
 9.7021333e+00   3.7640555e+01
 9.7076000e+00   3.7413849e+01
 9.7130667e+00   3.7469787e+01
 9.7185333e+00   3.7153168e+01
 9.7240000e+00   3.7370082e+01
 9.7294667e+00   3.7055550e+01
 9.7349333e+00   3.7143653e+01
 9.7404000e+00   3.6853793e+01
 9.7458667e+00   3.6915824e+01
 9.7513333e+00   3.6870425e+01
 9.7568000e+00   3.6661518e+01
 9.7622667e+00   3.6810955e+01
 9.7677333e+00   3.6596477e+01
 9.7732000e+00   3.6591702e+01
 9.7786667e+00   3.6645865e+01
 9.7841333e+00   3.6680086e+01
 9.7896000e+00   3.6682761e+01
 9.7950667e+00   3.6848645e+01
 9.8005333e+00   3.7236238e+01
 9.8060000e+00   3.7766381e+01
 9.8114667e+00   3.8892400e+01
 9.8169333e+00   4.0262507e+01
 9.8224000e+00   4.2294440e+01
 9.8278667e+00   4.3911075e+01
 9.8333333e+00   4.6330507e+01
 9.8388000e+00   4.8058526e+01
 9.8442667e+00   4.8816142e+01
 9.8497333e+00   4.8704149e+01
 9.8552000e+00   4.7656977e+01
 9.8606667e+00   4.6329397e+01
 9.8661333e+00   4.4157588e+01
 9.8716000e+00   4.2390176e+01
 9.8770667e+00   4.0863155e+01
 9.8825333e+00   3.9442256e+01
 9.8880000e+00   3.8544945e+01
 9.8934667e+00   3.7903209e+01
 9.8989333e+00   3.7613464e+01
 9.9044000e+00   3.7365190e+01
 9.9098667e+00   3.7581017e+01
 9.9153333e+00   3.7365146e+01
 9.9208000e+00   3.7661478e+01
 9.9262667e+00   3.7611404e+01
 9.9317333e+00   3.7895275e+01
 9.9372000e+00   3.8284500e+01
 9.9426667e+00   3.8817106e+01
 9.9481333e+00   3.9807440e+01
 9.9536000e+00   4.6474213e+01
 9.9590667e+00   4.6718209e+01
 9.9645333e+00   4.9063373e+01
 9.9700000e+00   5.7655419e+01
 9.9754667e+00   5.6687231e+01
 9.9809333e+00   7.6075675e+01
 9.9864000e+00   8.1450941e+01
 9.9918667e+00   8.8315819e+01
 9.9973333e+00   9.9971773e+01
 1.0002800e+01   1.0096383e+02
 1.0008267e+01   1.1836543e+02
 1.0013733e+01   9.1910505e+01
 1.0019200e+01   1.1899020e+02
 1.0024667e+01   9.9176212e+01
 1.0030133e+01   9.2605307e+01
 1.0035600e+01   7.9246425e+01
 1.0041067e+01   8.2787188e+01
 1.0046533e+01   6.6801495e+01
 1.0052000e+01   6.6604313e+01
 1.0057467e+01   6.0842037e+01
 1.0062933e+01   5.1210461e+01
 1.0068400e+01   6.1354823e+01
 1.0073867e+01   4.3764696e+01
 1.0079333e+01   5.4095511e+01
 1.0084800e+01   4.0374621e+01
 1.0090267e+01   4.1922616e+01
 1.0095733e+01   3.8158860e+01
 1.0101200e+01   3.8948851e+01
 1.0106667e+01   3.7330114e+01
 1.0112133e+01   3.7502183e+01
 1.0117600e+01   3.6766041e+01
 1.0123067e+01   3.7122474e+01
 1.0128533e+01   3.6801038e+01
 1.0134000e+01   3.7177305e+01
 1.0139467e+01   3.7065748e+01
 1.0144933e+01   3.6985448e+01
 1.0150400e+01   3.7028202e+01
 1.0155867e+01   3.6896513e+01
 1.0161333e+01   3.7368807e+01
 1.0166800e+01   3.7940763e+01
 1.0172267e+01   3.8801824e+01
 1.0177733e+01   3.9848989e+01
 1.0183200e+01   4.0306186e+01
 1.0188667e+01   4.1321069e+01
 1.0194133e+01   4.1556596e+01
 1.0199600e+01   4.1694923e+01
 1.0205067e+01   4.1379345e+01
 1.0210533e+01   4.1290558e+01
 1.0216000e+01   3.9926248e+01
 1.0221467e+01   3.9772873e+01
 1.0226933e+01   3.7874193e+01
 1.0232400e+01   3.7579648e+01
 1.0237867e+01   3.6249791e+01
 1.0243333e+01   3.6043387e+01
 1.0248800e+01   3.4930239e+01
 1.0254267e+01   3.4830154e+01
 1.0259733e+01   3.4292045e+01
 1.0265200e+01   3.4227438e+01
 1.0270667e+01   3.3953761e+01
 1.0276133e+01   3.4130231e+01
 1.0281600e+01   3.3779954e+01
 1.0287067e+01   3.3847942e+01
 1.0292533e+01   3.3683674e+01
 1.0298000e+01   3.3621128e+01
 1.0303467e+01   3.3583618e+01
 1.0308933e+01   3.3564303e+01
 1.0314400e+01   3.3534805e+01
 1.0319867e+01   3.3409641e+01
 1.0325333e+01   3.3418505e+01
 1.0330800e+01   3.3449751e+01
 1.0336267e+01   3.3379875e+01
 1.0341733e+01   3.3398325e+01
 1.0347200e+01   3.3349739e+01
 1.0352667e+01   3.3276857e+01
 1.0358133e+01   3.3291450e+01
 1.0363600e+01   3.3243482e+01
 1.0369067e+01   3.3181095e+01
 1.0374533e+01   3.3139784e+01
 1.0380000e+01   3.3234005e+01
 1.0385467e+01   3.3188305e+01
 1.0390933e+01   3.2986853e+01
 1.0396400e+01   3.3056810e+01
 1.0401867e+01   3.3177978e+01
 1.0407333e+01   3.3109867e+01
 1.0412800e+01   3.3039903e+01
 1.0418267e+01   3.3217286e+01
 1.0423733e+01   3.3403597e+01
 1.0429200e+01   3.3068404e+01
 1.0434667e+01   3.3252577e+01
 1.0440133e+01   3.3103703e+01
 1.0445600e+01   3.2974587e+01
 1.0451067e+01   3.2975137e+01
 1.0456533e+01   3.2878950e+01
 1.0462000e+01   3.2939720e+01
 1.0467467e+01   3.2980859e+01
 1.0472933e+01   3.2969775e+01
 1.0478400e+01   3.2903061e+01
 1.0483867e+01   3.2964568e+01
 1.0489333e+01   3.2972337e+01
 1.0494800e+01   3.3084362e+01
 1.0500267e+01   3.2976673e+01
 1.0505733e+01   3.3227633e+01
 1.0511200e+01   3.2948051e+01
 1.0516667e+01   3.3177654e+01
 1.0522133e+01   3.3068453e+01
 1.0527600e+01   3.3126936e+01
 1.0533067e+01   3.3105649e+01
 1.0538533e+01   3.3310585e+01
 1.0544000e+01   3.3206321e+01
 1.0549467e+01   3.3199408e+01
 1.0554933e+01   3.3220805e+01
 1.0560400e+01   3.3283646e+01
 1.0565867e+01   3.3390889e+01
 1.0571333e+01   3.3684794e+01
 1.0576800e+01   3.3728014e+01
 1.0582267e+01   3.4283304e+01
 1.0587733e+01   3.4863888e+01
 1.0593200e+01   3.6362139e+01
 1.0598667e+01   3.7544750e+01
 1.0604133e+01   4.0512505e+01
 1.0609600e+01   4.2559096e+01
 1.0615067e+01   4.6650357e+01
 1.0620533e+01   4.9903406e+01
 1.0626000e+01   5.3130265e+01
 1.0631467e+01   5.4595936e+01
 1.0636933e+01   5.5915291e+01
 1.0642400e+01   5.2411650e+01
 1.0647867e+01   5.0649844e+01
 1.0653333e+01   4.6177497e+01
 1.0658800e+01   4.2641432e+01
 1.0664267e+01   3.9518532e+01
 1.0669733e+01   3.7216642e+01
 1.0675200e+01   3.5964145e+01
 1.0680667e+01   3.4941712e+01
 1.0686133e+01   3.4515810e+01
 1.0691600e+01   3.3845098e+01
 1.0697067e+01   3.3578578e+01
 1.0702533e+01   3.3537718e+01
 1.0708000e+01   3.3287583e+01
 1.0713467e+01   3.3384276e+01
 1.0718933e+01   3.3203424e+01
 1.0724400e+01   3.3387774e+01
 1.0729867e+01   3.3110029e+01
 1.0735333e+01   3.3323522e+01
 1.0740800e+01   3.3087285e+01
 1.0746267e+01   3.3234248e+01
 1.0751733e+01   3.2999718e+01
 1.0757200e+01   3.3298744e+01
 1.0762667e+01   3.3112966e+01
 1.0768133e+01   3.3281917e+01
 1.0773600e+01   3.2996330e+01
 1.0779067e+01   3.3110595e+01
 1.0784533e+01   3.3069103e+01
 1.0790000e+01   3.3133868e+01
 1.0795467e+01   3.3110894e+01
 1.0800933e+01   3.3039299e+01
 1.0806400e+01   3.3163561e+01
 1.0811867e+01   3.3074221e+01
 1.0817333e+01   3.3119204e+01
 1.0822800e+01   3.3123100e+01
 1.0828267e+01   3.3148232e+01
 1.0833733e+01   3.3180272e+01
 1.0839200e+01   3.3055980e+01
 1.0844667e+01   3.3213660e+01
 1.0850133e+01   3.3189181e+01
 1.0855600e+01   3.3203513e+01
 1.0861067e+01   3.3257944e+01
 1.0866533e+01   3.3506195e+01
 1.0872000e+01   3.3594165e+01
 1.0877467e+01   3.3874567e+01
 1.0882933e+01   3.4360792e+01
 1.0888400e+01   3.4801060e+01
 1.0893867e+01   3.5800332e+01
 1.0899333e+01   3.6537952e+01
 1.0904800e+01   3.7528456e+01
 1.0910267e+01   3.8266226e+01
 1.0915733e+01   3.8363806e+01
 1.0921200e+01   3.8374282e+01
 1.0926667e+01   3.7874628e+01
 1.0932133e+01   3.7614968e+01
 1.0937600e+01   3.6981794e+01
 1.0943067e+01   3.6206989e+01
 1.0948533e+01   3.5600885e+01
 1.0954000e+01   3.4954847e+01
 1.0959467e+01   3.4448263e+01
 1.0964933e+01   3.4037267e+01
 1.0970400e+01   3.3861195e+01
 1.0975867e+01   3.3800677e+01
 1.0981333e+01   3.3656371e+01
 1.0986800e+01   3.3756485e+01
 1.0992267e+01   3.3667946e+01
 1.0997733e+01   3.3624484e+01
 1.1003200e+01   3.3659543e+01
 1.1008667e+01   3.3739897e+01
 1.1014133e+01   3.3617833e+01
 1.1019600e+01   3.3719780e+01
 1.1025067e+01   3.3871746e+01
 1.1030533e+01   3.3742882e+01
 1.1036000e+01   3.3887674e+01
 1.1041467e+01   3.3920923e+01
 1.1046933e+01   3.3831397e+01
 1.1052400e+01   3.4042562e+01
 1.1057867e+01   3.4117823e+01
 1.1063333e+01   3.4133884e+01
 1.1068800e+01   3.4227135e+01
 1.1074267e+01   3.4481551e+01
 1.1079733e+01   3.4364100e+01
 1.1085200e+01   3.4814812e+01
 1.1090667e+01   3.4980116e+01
 1.1096133e+01   3.5749933e+01
 1.1101600e+01   3.6489944e+01
 1.1107067e+01   3.8185381e+01
 1.1112533e+01   4.0750153e+01
 1.1118000e+01   4.5320837e+01
 1.1123467e+01   4.8712645e+01
 1.1128933e+01   5.4615393e+01
 1.1134400e+01   5.9353737e+01
 1.1139867e+01   6.1890288e+01
 1.1145333e+01   6.4375898e+01
 1.1150800e+01   6.4311096e+01
 1.1156267e+01   6.2679122e+01
 1.1161733e+01   5.9315953e+01
 1.1167200e+01   5.4615222e+01
 1.1172667e+01   4.9631725e+01
 1.1178133e+01   4.5181331e+01
 1.1183600e+01   4.1545469e+01
 1.1189067e+01   3.9230592e+01
 1.1194533e+01   3.7681842e+01
