PWDR ff_004456_sum_norm_dc_0.tif Azm= 352.fxye Bank 1
2-Theta Angle (Degrees)
Intensity
       1500
 3.0000000e+00   4.7767035e+01
 3.0054667e+00   4.7346131e+01
 3.0109333e+00   4.7438671e+01
 3.0164000e+00   4.7090795e+01
 3.0218667e+00   4.6932706e+01
 3.0273333e+00   4.6682251e+01
 3.0328000e+00   4.6640347e+01
 3.0382667e+00   4.6471689e+01
 3.0437333e+00   4.6195203e+01
 3.0492000e+00   4.6257670e+01
 3.0546667e+00   4.6004285e+01
 3.0601333e+00   4.5575781e+01
 3.0656000e+00   4.5566382e+01
 3.0710667e+00   4.5193876e+01
 3.0765333e+00   4.5178518e+01
 3.0820000e+00   4.4813378e+01
 3.0874667e+00   4.4390158e+01
 3.0929333e+00   4.4624119e+01
 3.0984000e+00   4.4428690e+01
 3.1038667e+00   4.4413089e+01
 3.1093333e+00   4.3975018e+01
 3.1148000e+00   4.3837879e+01
 3.1202667e+00   4.3926612e+01
 3.1257333e+00   4.3514310e+01
 3.1312000e+00   4.3329776e+01
 3.1366667e+00   4.3460328e+01
 3.1421333e+00   4.2928117e+01
 3.1476000e+00   4.2981353e+01
 3.1530667e+00   4.2823928e+01
 3.1585333e+00   4.2580151e+01
 3.1640000e+00   4.2760197e+01
 3.1694667e+00   4.2439298e+01
 3.1749333e+00   4.2443889e+01
 3.1804000e+00   4.2327399e+01
 3.1858667e+00   4.2141219e+01
 3.1913333e+00   4.2070701e+01
 3.1968000e+00   4.1862777e+01
 3.2022667e+00   4.1896867e+01
 3.2077333e+00   4.1697694e+01
 3.2132000e+00   4.1457055e+01
 3.2186667e+00   4.1541317e+01
 3.2241333e+00   4.1148446e+01
 3.2296000e+00   4.1085094e+01
 3.2350667e+00   4.0841227e+01
 3.2405333e+00   4.0966700e+01
 3.2460000e+00   4.0342695e+01
 3.2514667e+00   4.0697757e+01
 3.2569333e+00   4.0483345e+01
 3.2624000e+00   4.0671510e+01
 3.2678667e+00   4.0298938e+01
 3.2733333e+00   4.0502318e+01
 3.2788000e+00   4.0202848e+01
 3.2842667e+00   4.0489021e+01
 3.2897333e+00   4.0066385e+01
 3.2952000e+00   3.9948141e+01
 3.3006667e+00   3.9921184e+01
 3.3061333e+00   3.9653063e+01
 3.3116000e+00   3.9764371e+01
 3.3170667e+00   3.9627943e+01
 3.3225333e+00   3.9901391e+01
 3.3280000e+00   3.9809087e+01
 3.3334667e+00   3.9568031e+01
 3.3389333e+00   3.9773409e+01
 3.3444000e+00   3.9673528e+01
 3.3498667e+00   3.9477467e+01
 3.3553333e+00   3.9480465e+01
 3.3608000e+00   3.9386384e+01
 3.3662667e+00   3.9286773e+01
 3.3717333e+00   3.9694440e+01
 3.3772000e+00   3.9203505e+01
 3.3826667e+00   4.1625303e+01
 3.3881333e+00   3.9391857e+01
 3.3936000e+00   3.9192658e+01
 3.3990667e+00   3.9772414e+01
 3.4045333e+00   3.9218062e+01
 3.4100000e+00   3.9264075e+01
 3.4154667e+00   3.8929184e+01
 3.4209333e+00   3.9341879e+01
 3.4264000e+00   3.9007236e+01
 3.4318667e+00   3.8986341e+01
 3.4373333e+00   3.9111532e+01
 3.4428000e+00   3.8808506e+01
 3.4482667e+00   3.9045043e+01
 3.4537333e+00   3.8720335e+01
 3.4592000e+00   3.8975856e+01
 3.4646667e+00   3.8807623e+01
 3.4701333e+00   3.8977772e+01
 3.4756000e+00   3.9028179e+01
 3.4810667e+00   3.9197564e+01
 3.4865333e+00   3.9158918e+01
 3.4920000e+00   3.8744761e+01
 3.4974667e+00   3.9012381e+01
 3.5029333e+00   3.8845072e+01
 3.5084000e+00   3.8741082e+01
 3.5138667e+00   3.8663047e+01
 3.5193333e+00   3.8728211e+01
 3.5248000e+00   3.8503144e+01
 3.5302667e+00   3.8936853e+01
 3.5357333e+00   3.8448884e+01
 3.5412000e+00   3.8787680e+01
 3.5466667e+00   3.8574316e+01
 3.5521333e+00   3.8585001e+01
 3.5576000e+00   3.8871131e+01
 3.5630667e+00   3.8635975e+01
 3.5685333e+00   3.8790984e+01
 3.5740000e+00   3.8960732e+01
 3.5794667e+00   3.8846963e+01
 3.5849333e+00   3.8777939e+01
 3.5904000e+00   3.8906760e+01
 3.5958667e+00   3.8649829e+01
 3.6013333e+00   3.9034193e+01
 3.6068000e+00   3.8675618e+01
 3.6122667e+00   3.9180671e+01
 3.6177333e+00   3.8815692e+01
 3.6232000e+00   3.8969987e+01
 3.6286667e+00   3.8920297e+01
 3.6341333e+00   3.9008352e+01
 3.6396000e+00   3.9019116e+01
 3.6450667e+00   3.8945169e+01
 3.6505333e+00   3.9168529e+01
 3.6560000e+00   3.9028692e+01
 3.6614667e+00   3.9189501e+01
 3.6669333e+00   3.9032521e+01
 3.6724000e+00   3.9334844e+01
 3.6778667e+00   3.9057576e+01
 3.6833333e+00   3.9439094e+01
 3.6888000e+00   3.9306856e+01
 3.6942667e+00   3.9552375e+01
 3.6997333e+00   3.9296576e+01
 3.7052000e+00   3.9548498e+01
 3.7106667e+00   3.9695995e+01
 3.7161333e+00   3.9747068e+01
 3.7216000e+00   3.9747383e+01
 3.7270667e+00   3.9888526e+01
 3.7325333e+00   3.9870708e+01
 3.7380000e+00   4.0057618e+01
 3.7434667e+00   4.0001814e+01
 3.7489333e+00   4.0227473e+01
 3.7544000e+00   4.0218928e+01
 3.7598667e+00   4.0350666e+01
 3.7653333e+00   4.0330103e+01
 3.7708000e+00   4.0444438e+01
 3.7762667e+00   4.0503113e+01
 3.7817333e+00   4.0406507e+01
 3.7872000e+00   4.0742588e+01
 3.7926667e+00   4.0571351e+01
 3.7981333e+00   4.0787945e+01
 3.8036000e+00   4.0758298e+01
 3.8090667e+00   4.0930817e+01
 3.8145333e+00   4.0769806e+01
 3.8200000e+00   4.0935123e+01
 3.8254667e+00   4.0983084e+01
 3.8309333e+00   4.1064550e+01
 3.8364000e+00   4.1117333e+01
 3.8418667e+00   4.1162646e+01
 3.8473333e+00   4.1643442e+01
 3.8528000e+00   4.1580407e+01
 3.8582667e+00   4.1746303e+01
 3.8637333e+00   4.1747426e+01
 3.8692000e+00   4.2055412e+01
 3.8746667e+00   4.1694432e+01
 3.8801333e+00   4.2060305e+01
 3.8856000e+00   4.2005283e+01
 3.8910667e+00   4.2344510e+01
 3.8965333e+00   4.2427299e+01
 3.9020000e+00   4.2978648e+01
 3.9074667e+00   4.2698908e+01
 3.9129333e+00   4.2926259e+01
 3.9184000e+00   4.2882247e+01
 3.9238667e+00   4.3051888e+01
 3.9293333e+00   4.3081399e+01
 3.9348000e+00   4.3258031e+01
 3.9402667e+00   4.3169618e+01
 3.9457333e+00   4.3101196e+01
 3.9512000e+00   4.3373900e+01
 3.9566667e+00   4.3063589e+01
 3.9621333e+00   4.3396841e+01
 3.9676000e+00   4.3310227e+01
 3.9730667e+00   4.3548619e+01
 3.9785333e+00   4.3491096e+01
 3.9840000e+00   4.3492075e+01
 3.9894667e+00   4.3726437e+01
 3.9949333e+00   4.3848767e+01
 4.0004000e+00   4.3830396e+01
 4.0058667e+00   4.3965480e+01
 4.0113333e+00   4.3941169e+01
 4.0168000e+00   4.4116770e+01
 4.0222667e+00   4.4300764e+01
 4.0277333e+00   4.4239807e+01
 4.0332000e+00   4.4975578e+01
 4.0386667e+00   4.4561458e+01
 4.0441333e+00   4.6184050e+01
 4.0496000e+00   4.4945306e+01
 4.0550667e+00   4.5582255e+01
 4.0605333e+00   4.5508649e+01
 4.0660000e+00   4.5906300e+01
 4.0714667e+00   4.6932652e+01
 4.0769333e+00   4.7852677e+01
 4.0824000e+00   4.6660241e+01
 4.0878667e+00   4.8214767e+01
 4.0933333e+00   4.7329780e+01
 4.0988000e+00   4.8233263e+01
 4.1042667e+00   4.8291459e+01
 4.1097333e+00   4.8391388e+01
 4.1152000e+00   4.8654726e+01
 4.1206667e+00   4.8541550e+01
 4.1261333e+00   4.9100548e+01
 4.1316000e+00   4.8869909e+01
 4.1370667e+00   5.1399331e+01
 4.1425333e+00   4.8593246e+01
 4.1480000e+00   4.8556069e+01
 4.1534667e+00   4.8322112e+01
 4.1589333e+00   4.8279129e+01
 4.1644000e+00   4.8428743e+01
 4.1698667e+00   4.8189083e+01
 4.1753333e+00   4.8337990e+01
 4.1808000e+00   4.8183987e+01
 4.1862667e+00   4.8463777e+01
 4.1917333e+00   4.8262416e+01
 4.1972000e+00   4.8502132e+01
 4.2026667e+00   4.8482000e+01
 4.2081333e+00   4.8744929e+01
 4.2136000e+00   4.8820032e+01
 4.2190667e+00   4.9074393e+01
 4.2245333e+00   4.9043799e+01
 4.2300000e+00   4.9250269e+01
 4.2354667e+00   4.9160687e+01
 4.2409333e+00   4.9469457e+01
 4.2464000e+00   4.9615724e+01
 4.2518667e+00   4.9948742e+01
 4.2573333e+00   4.9890961e+01
 4.2628000e+00   5.0784265e+01
 4.2682667e+00   5.0371849e+01
 4.2737333e+00   5.1218382e+01
 4.2792000e+00   5.0731627e+01
 4.2846667e+00   5.1096654e+01
 4.2901333e+00   5.1100376e+01
 4.2956000e+00   5.1241903e+01
 4.3010667e+00   5.1516367e+01
 4.3065333e+00   5.1532062e+01
 4.3120000e+00   5.1889878e+01
 4.3174667e+00   5.1964465e+01
 4.3229333e+00   5.2412179e+01
 4.3284000e+00   5.2432417e+01
 4.3338667e+00   5.2820616e+01
 4.3393333e+00   5.3133731e+01
 4.3448000e+00   5.3213609e+01
 4.3502667e+00   5.3461512e+01
 4.3557333e+00   5.3846585e+01
 4.3612000e+00   5.4251482e+01
 4.3666667e+00   5.4325238e+01
 4.3721333e+00   5.4963049e+01
 4.3776000e+00   5.5035955e+01
 4.3830667e+00   5.5647993e+01
 4.3885333e+00   5.6116204e+01
 4.3940000e+00   5.6978547e+01
 4.3994667e+00   5.7347101e+01
 4.4049333e+00   5.8036400e+01
 4.4104000e+00   5.8625207e+01
 4.4158667e+00   5.9551446e+01
 4.4213333e+00   5.9947137e+01
 4.4268000e+00   6.0394170e+01
 4.4322667e+00   6.1013428e+01
 4.4377333e+00   6.1480827e+01
 4.4432000e+00   6.2175962e+01
 4.4486667e+00   6.2918153e+01
 4.4541333e+00   6.3857875e+01
 4.4596000e+00   6.5183559e+01
 4.4650667e+00   6.7332436e+01
 4.4705333e+00   6.9858112e+01
 4.4760000e+00   7.4543653e+01
 4.4814667e+00   8.2334084e+01
 4.4869333e+00   9.0212953e+01
 4.4924000e+00   1.0804442e+02
 4.4978667e+00   1.4643889e+02
 4.5033333e+00   1.8212652e+02
 4.5088000e+00   2.1873497e+02
 4.5142667e+00   2.5406447e+02
 4.5197333e+00   2.3045698e+02
 4.5252000e+00   1.9249146e+02
 4.5306667e+00   1.9348125e+02
 4.5361333e+00   1.5624445e+02
 4.5416000e+00   1.3112257e+02
 4.5470667e+00   1.1476127e+02
 4.5525333e+00   1.2653180e+02
 4.5580000e+00   8.6762350e+01
 4.5634667e+00   8.6619131e+01
 4.5689333e+00   7.2086854e+01
 4.5744000e+00   6.8847035e+01
 4.5798667e+00   6.6058346e+01
 4.5853333e+00   6.4536354e+01
 4.5908000e+00   6.3938229e+01
 4.5962667e+00   6.3087623e+01
 4.6017333e+00   6.2523440e+01
 4.6072000e+00   6.2839582e+01
 4.6126667e+00   6.2258617e+01
 4.6181333e+00   6.2596078e+01
 4.6236000e+00   6.2831058e+01
 4.6290667e+00   6.3011094e+01
 4.6345333e+00   6.3467751e+01
 4.6400000e+00   6.4375194e+01
 4.6454667e+00   6.5076469e+01
 4.6509333e+00   6.5561741e+01
 4.6564000e+00   6.5752878e+01
 4.6618667e+00   6.5730210e+01
 4.6673333e+00   6.4425507e+01
 4.6728000e+00   6.4550940e+01
 4.6782667e+00   6.3832245e+01
 4.6837333e+00   6.3278046e+01
 4.6892000e+00   6.2959550e+01
 4.6946667e+00   6.2477488e+01
 4.7001333e+00   6.1985223e+01
 4.7056000e+00   6.2055707e+01
 4.7110667e+00   6.1579550e+01
 4.7165333e+00   6.1539503e+01
 4.7220000e+00   6.1436617e+01
 4.7274667e+00   6.1526597e+01
 4.7329333e+00   6.1300414e+01
 4.7384000e+00   6.0986068e+01
 4.7438667e+00   6.1054043e+01
 4.7493333e+00   6.1193763e+01
 4.7548000e+00   6.1291289e+01
 4.7602667e+00   6.0460888e+01
 4.7657333e+00   6.3632254e+01
 4.7712000e+00   6.2662843e+01
 4.7766667e+00   6.2804491e+01
 4.7821333e+00   6.2536120e+01
 4.7876000e+00   6.0595866e+01
 4.7930667e+00   6.0263446e+01
 4.7985333e+00   6.0819583e+01
 4.8040000e+00   6.0668250e+01
 4.8094667e+00   6.0673727e+01
 4.8149333e+00   6.1357255e+01
 4.8204000e+00   6.1107287e+01
 4.8258667e+00   6.1679688e+01
 4.8313333e+00   6.1679942e+01
 4.8368000e+00   6.2312830e+01
 4.8422667e+00   6.2038157e+01
 4.8477333e+00   6.3315550e+01
 4.8532000e+00   6.3015874e+01
 4.8586667e+00   6.4300956e+01
 4.8641333e+00   6.4002831e+01
 4.8696000e+00   6.5966119e+01
 4.8750667e+00   6.4732580e+01
 4.8805333e+00   6.7040427e+01
 4.8860000e+00   6.6345130e+01
 4.8914667e+00   6.9034534e+01
 4.8969333e+00   6.9846150e+01
 4.9024000e+00   7.3279829e+01
 4.9078667e+00   7.6628769e+01
 4.9133333e+00   8.3850782e+01
 4.9188000e+00   9.6258844e+01
 4.9242667e+00   1.1920757e+02
 4.9297333e+00   1.4385350e+02
 4.9352000e+00   1.6043078e+02
 4.9406667e+00   3.0136854e+02
 4.9461333e+00   2.1937208e+02
 4.9516000e+00   4.5152456e+02
 4.9570667e+00   3.3011405e+02
 4.9625333e+00   5.1977331e+02
 4.9680000e+00   4.3597479e+02
 4.9734667e+00   4.4626407e+02
 4.9789333e+00   4.8432530e+02
 4.9844000e+00   4.1289399e+02
 4.9898667e+00   4.8984520e+02
 4.9953333e+00   3.7241442e+02
 5.0008000e+00   2.8959855e+02
 5.0062667e+00   2.4241741e+02
 5.0117333e+00   1.7377639e+02
 5.0172000e+00   1.5691970e+02
 5.0226667e+00   1.1110115e+02
 5.0281333e+00   9.6705114e+01
 5.0336000e+00   8.4825417e+01
 5.0390667e+00   7.6225285e+01
 5.0445333e+00   7.3951929e+01
 5.0500000e+00   7.0757398e+01
 5.0554667e+00   6.9454500e+01
 5.0609333e+00   6.7855602e+01
 5.0664000e+00   6.6674068e+01
 5.0718667e+00   6.6304433e+01
 5.0773333e+00   6.5154428e+01
 5.0828000e+00   6.4543405e+01
 5.0882667e+00   6.3620999e+01
 5.0937333e+00   6.3262507e+01
 5.0992000e+00   6.2118403e+01
 5.1046667e+00   6.1548013e+01
 5.1101333e+00   6.1141239e+01
 5.1156000e+00   6.0526645e+01
 5.1210667e+00   5.9712236e+01
 5.1265333e+00   5.9629405e+01
 5.1320000e+00   5.8694428e+01
 5.1374667e+00   5.8805205e+01
 5.1429333e+00   5.7918694e+01
 5.1484000e+00   5.7916598e+01
 5.1538667e+00   5.7671936e+01
 5.1593333e+00   5.6812521e+01
 5.1648000e+00   5.7309631e+01
 5.1702667e+00   5.6184162e+01
 5.1757333e+00   5.6411442e+01
 5.1812000e+00   5.5679301e+01
 5.1866667e+00   5.5733234e+01
 5.1921333e+00   5.5137951e+01
 5.1976000e+00   5.5300709e+01
 5.2030667e+00   5.4547892e+01
 5.2085333e+00   5.4772512e+01
 5.2140000e+00   5.4045658e+01
 5.2194667e+00   5.4121479e+01
 5.2249333e+00   5.3665412e+01
 5.2304000e+00   5.3462339e+01
 5.2358667e+00   5.3127706e+01
 5.2413333e+00   5.3036702e+01
 5.2468000e+00   5.2661847e+01
 5.2522667e+00   5.2578848e+01
 5.2577333e+00   5.2667610e+01
 5.2632000e+00   5.2172218e+01
 5.2686667e+00   5.2335139e+01
 5.2741333e+00   5.1852186e+01
 5.2796000e+00   5.1851576e+01
 5.2850667e+00   5.1440285e+01
 5.2905333e+00   5.1601740e+01
 5.2960000e+00   5.1084662e+01
 5.3014667e+00   5.1319195e+01
 5.3069333e+00   5.1004361e+01
 5.3124000e+00   5.1010808e+01
 5.3178667e+00   5.0851973e+01
 5.3233333e+00   5.0736460e+01
 5.3288000e+00   5.0454873e+01
 5.3342667e+00   5.0472589e+01
 5.3397333e+00   5.0399069e+01
 5.3452000e+00   4.9915036e+01
 5.3506667e+00   5.0413092e+01
 5.3561333e+00   4.9811534e+01
 5.3616000e+00   5.0813008e+01
 5.3670667e+00   4.9924777e+01
 5.3725333e+00   5.5551958e+01
 5.3780000e+00   5.0352173e+01
 5.3834667e+00   5.0993708e+01
 5.3889333e+00   4.9843365e+01
 5.3944000e+00   4.9500903e+01
 5.3998667e+00   4.9159336e+01
 5.4053333e+00   4.9131772e+01
 5.4108000e+00   4.8959769e+01
 5.4162667e+00   4.8936321e+01
 5.4217333e+00   4.8689441e+01
 5.4272000e+00   4.8610134e+01
 5.4326667e+00   4.8654896e+01
 5.4381333e+00   4.8341555e+01
 5.4436000e+00   4.8414328e+01
 5.4490667e+00   4.8309845e+01
 5.4545333e+00   4.8353399e+01
 5.4600000e+00   4.8178744e+01
 5.4654667e+00   4.8300308e+01
 5.4709333e+00   4.7976725e+01
 5.4764000e+00   4.8204166e+01
 5.4818667e+00   4.7990772e+01
 5.4873333e+00   4.8000396e+01
 5.4928000e+00   4.7775212e+01
 5.4982667e+00   4.8064115e+01
 5.5037333e+00   4.7697955e+01
 5.5092000e+00   4.7703770e+01
 5.5146667e+00   4.7718371e+01
 5.5201333e+00   4.7610911e+01
 5.5256000e+00   4.7595316e+01
 5.5310667e+00   4.7643264e+01
 5.5365333e+00   4.7631084e+01
 5.5420000e+00   4.7639531e+01
 5.5474667e+00   4.7668655e+01
 5.5529333e+00   4.7601089e+01
 5.5584000e+00   4.7561737e+01
 5.5638667e+00   4.7437876e+01
 5.5693333e+00   4.7823437e+01
 5.5748000e+00   4.8687435e+01
 5.5802667e+00   4.7415360e+01
 5.5857333e+00   4.7887356e+01
 5.5912000e+00   4.7658089e+01
 5.5966667e+00   4.7741234e+01
 5.6021333e+00   4.7694873e+01
 5.6076000e+00   4.7779982e+01
 5.6130667e+00   4.7678348e+01
 5.6185333e+00   4.7983287e+01
 5.6240000e+00   4.7631690e+01
 5.6294667e+00   4.8137875e+01
 5.6349333e+00   4.7842922e+01
 5.6404000e+00   4.8195093e+01
 5.6458667e+00   4.8037736e+01
 5.6513333e+00   4.8651915e+01
 5.6568000e+00   4.8749193e+01
 5.6622667e+00   4.9203842e+01
 5.6677333e+00   5.1290147e+01
 5.6732000e+00   5.1517048e+01
 5.6786667e+00   6.3283474e+01
 5.6841333e+00   7.0412920e+01
 5.6896000e+00   7.0004649e+01
 5.6950667e+00   8.1661514e+01
 5.7005333e+00   1.1970328e+02
 5.7060000e+00   1.1042209e+02
 5.7114667e+00   1.4295093e+02
 5.7169333e+00   1.4533300e+02
 5.7224000e+00   1.6229944e+02
 5.7278667e+00   1.4890375e+02
 5.7333333e+00   1.9120287e+02
 5.7388000e+00   1.5644707e+02
 5.7442667e+00   1.9850507e+02
 5.7497333e+00   1.7128446e+02
 5.7552000e+00   1.6093000e+02
 5.7606667e+00   1.7534595e+02
 5.7661333e+00   1.6365719e+02
 5.7716000e+00   1.3011884e+02
 5.7770667e+00   1.4091925e+02
 5.7825333e+00   9.1102679e+01
 5.7880000e+00   9.9943524e+01
 5.7934667e+00   7.0330205e+01
 5.7989333e+00   6.4449031e+01
 5.8044000e+00   5.4636928e+01
 5.8098667e+00   5.2707987e+01
 5.8153333e+00   4.9251853e+01
 5.8208000e+00   4.8880279e+01
 5.8262667e+00   4.7517709e+01
 5.8317333e+00   4.7531529e+01
 5.8372000e+00   4.6514889e+01
 5.8426667e+00   4.6911433e+01
 5.8481333e+00   4.5892036e+01
 5.8536000e+00   4.6211182e+01
 5.8590667e+00   4.5390419e+01
 5.8645333e+00   4.5768575e+01
 5.8700000e+00   4.4870978e+01
 5.8754667e+00   4.5240004e+01
 5.8809333e+00   4.4481331e+01
 5.8864000e+00   4.4608158e+01
 5.8918667e+00   4.3964896e+01
 5.8973333e+00   4.4340827e+01
 5.9028000e+00   4.4120889e+01
 5.9082667e+00   4.3940015e+01
 5.9137333e+00   4.3670713e+01
 5.9192000e+00   4.3668952e+01
 5.9246667e+00   4.3281860e+01
 5.9301333e+00   4.3298112e+01
 5.9356000e+00   4.2889723e+01
 5.9410667e+00   4.2993224e+01
 5.9465333e+00   4.2801371e+01
 5.9520000e+00   4.2580826e+01
 5.9574667e+00   4.2458869e+01
 5.9629333e+00   4.2487912e+01
 5.9684000e+00   4.2524980e+01
 5.9738667e+00   4.2449389e+01
 5.9793333e+00   4.2360424e+01
 5.9848000e+00   4.2598795e+01
 5.9902667e+00   4.2386172e+01
 5.9957333e+00   4.2414948e+01
 6.0012000e+00   4.2444682e+01
 6.0066667e+00   4.2291071e+01
 6.0121333e+00   4.2455899e+01
 6.0176000e+00   4.1957669e+01
 6.0230667e+00   4.2426058e+01
 6.0285333e+00   4.2057143e+01
 6.0340000e+00   4.2161785e+01
 6.0394667e+00   4.2063478e+01
 6.0449333e+00   4.2217619e+01
 6.0504000e+00   4.1996769e+01
 6.0558667e+00   4.2223573e+01
 6.0613333e+00   4.1816529e+01
 6.0668000e+00   4.1978891e+01
 6.0722667e+00   4.1713942e+01
 6.0777333e+00   4.1896630e+01
 6.0832000e+00   4.1476379e+01
 6.0886667e+00   4.1716745e+01
 6.0941333e+00   4.1673001e+01
 6.0996000e+00   4.1394587e+01
 6.1050667e+00   4.1773144e+01
 6.1105333e+00   4.1448949e+01
 6.1160000e+00   4.1525511e+01
 6.1214667e+00   4.1396420e+01
 6.1269333e+00   4.1514103e+01
 6.1324000e+00   4.1342627e+01
 6.1378667e+00   4.1332355e+01
 6.1433333e+00   4.1222759e+01
 6.1488000e+00   4.1276525e+01
 6.1542667e+00   4.1059655e+01
 6.1597333e+00   4.0976631e+01
 6.1652000e+00   4.0790371e+01
 6.1706667e+00   4.0923821e+01
 6.1761333e+00   4.0777196e+01
 6.1816000e+00   4.0841834e+01
 6.1870667e+00   4.0719722e+01
 6.1925333e+00   4.0881051e+01
 6.1980000e+00   4.0686625e+01
 6.2034667e+00   4.0850824e+01
 6.2089333e+00   4.0890475e+01
 6.2144000e+00   4.0704843e+01
 6.2198667e+00   4.0858455e+01
 6.2253333e+00   4.0959600e+01
 6.2308000e+00   4.0909159e+01
 6.2362667e+00   4.1087934e+01
 6.2417333e+00   4.0989922e+01
 6.2472000e+00   4.1088460e+01
 6.2526667e+00   4.1062606e+01
 6.2581333e+00   4.0952590e+01
 6.2636000e+00   4.1113023e+01
 6.2690667e+00   4.1025903e+01
 6.2745333e+00   4.1314276e+01
 6.2800000e+00   4.1044709e+01
 6.2854667e+00   4.1399889e+01
 6.2909333e+00   4.1241347e+01
 6.2964000e+00   4.1163183e+01
 6.3018667e+00   4.1315450e+01
 6.3073333e+00   4.1324681e+01
 6.3128000e+00   4.1136833e+01
 6.3182667e+00   4.1503288e+01
 6.3237333e+00   4.1461019e+01
 6.3292000e+00   4.1532635e+01
 6.3346667e+00   4.1723643e+01
 6.3401333e+00   4.2175803e+01
 6.3456000e+00   4.2477083e+01
 6.3510667e+00   4.4011560e+01
 6.3565333e+00   4.5288610e+01
 6.3620000e+00   5.0364959e+01
 6.3674667e+00   5.3067104e+01
 6.3729333e+00   6.2292994e+01
 6.3784000e+00   5.2339178e+01
 6.3838667e+00   7.0083122e+01
 6.3893333e+00   5.5310857e+01
 6.3948000e+00   5.9287906e+01
 6.4002667e+00   5.3684038e+01
 6.4057333e+00   5.4196230e+01
 6.4112000e+00   5.2169634e+01
 6.4166667e+00   6.1625762e+01
 6.4221333e+00   5.1704160e+01
 6.4276000e+00   4.9726202e+01
 6.4330667e+00   4.6135394e+01
 6.4385333e+00   4.3003527e+01
 6.4440000e+00   4.2494988e+01
 6.4494667e+00   4.1640351e+01
 6.4549333e+00   4.1280781e+01
 6.4604000e+00   4.1167293e+01
 6.4658667e+00   4.0803589e+01
 6.4713333e+00   4.0732184e+01
 6.4768000e+00   4.0594581e+01
 6.4822667e+00   4.0555117e+01
 6.4877333e+00   4.0322584e+01
 6.4932000e+00   4.0336732e+01
 6.4986667e+00   4.0318786e+01
 6.5041333e+00   4.0386403e+01
 6.5096000e+00   4.0101650e+01
 6.5150667e+00   4.0386928e+01
 6.5205333e+00   4.0157789e+01
 6.5260000e+00   4.0078282e+01
 6.5314667e+00   4.0040717e+01
 6.5369333e+00   4.0067117e+01
 6.5424000e+00   4.0046521e+01
 6.5478667e+00   3.9971550e+01
 6.5533333e+00   4.0069797e+01
 6.5588000e+00   4.0020431e+01
 6.5642667e+00   4.0128364e+01
 6.5697333e+00   3.9911685e+01
 6.5752000e+00   4.0062336e+01
 6.5806667e+00   3.9865919e+01
 6.5861333e+00   3.9933689e+01
 6.5916000e+00   3.9839120e+01
 6.5970667e+00   3.9925077e+01
 6.6025333e+00   3.9919459e+01
 6.6080000e+00   3.9838653e+01
 6.6134667e+00   4.0011992e+01
 6.6189333e+00   3.9934725e+01
 6.6244000e+00   3.9935038e+01
 6.6298667e+00   3.9958579e+01
 6.6353333e+00   3.9963235e+01
 6.6408000e+00   3.9840705e+01
 6.6462667e+00   4.0116722e+01
 6.6517333e+00   3.9832485e+01
 6.6572000e+00   4.0172646e+01
 6.6626667e+00   3.9781173e+01
 6.6681333e+00   4.0120688e+01
 6.6736000e+00   3.9994329e+01
 6.6790667e+00   3.9940330e+01
 6.6845333e+00   3.9899601e+01
 6.6900000e+00   4.0316206e+01
 6.6954667e+00   3.9908516e+01
 6.7009333e+00   4.0203328e+01
 6.7064000e+00   4.0096116e+01
 6.7118667e+00   3.9920275e+01
 6.7173333e+00   4.0207794e+01
 6.7228000e+00   4.0215120e+01
 6.7282667e+00   4.0219106e+01
 6.7337333e+00   4.0157068e+01
 6.7392000e+00   4.0441171e+01
 6.7446667e+00   4.0125021e+01
 6.7501333e+00   4.0483970e+01
 6.7556000e+00   4.0150047e+01
 6.7610667e+00   4.0552922e+01
 6.7665333e+00   4.0251128e+01
 6.7720000e+00   4.0660671e+01
 6.7774667e+00   4.0149926e+01
 6.7829333e+00   4.0747126e+01
 6.7884000e+00   4.0362200e+01
 6.7938667e+00   4.0731890e+01
 6.7993333e+00   4.0359560e+01
 6.8048000e+00   4.0663929e+01
 6.8102667e+00   4.0314654e+01
 6.8157333e+00   4.0578002e+01
 6.8212000e+00   4.0410520e+01
 6.8266667e+00   4.0581187e+01
 6.8321333e+00   4.0547969e+01
 6.8376000e+00   4.0521515e+01
 6.8430667e+00   4.0838030e+01
 6.8485333e+00   4.0592846e+01
 6.8540000e+00   4.0803151e+01
 6.8594667e+00   4.0693573e+01
 6.8649333e+00   4.0920773e+01
 6.8704000e+00   4.0571305e+01
 6.8758667e+00   4.1063296e+01
 6.8813333e+00   4.0608539e+01
 6.8868000e+00   4.1034643e+01
 6.8922667e+00   4.0623033e+01
 6.8977333e+00   4.1018788e+01
 6.9032000e+00   4.0929938e+01
 6.9086667e+00   4.1082514e+01
 6.9141333e+00   4.1143944e+01
 6.9196000e+00   4.1200042e+01
 6.9250667e+00   4.1075690e+01
 6.9305333e+00   4.1262878e+01
 6.9360000e+00   4.1248686e+01
 6.9414667e+00   4.1373716e+01
 6.9469333e+00   4.1465716e+01
 6.9524000e+00   4.1333272e+01
 6.9578667e+00   4.1644801e+01
 6.9633333e+00   4.1499719e+01
 6.9688000e+00   4.1778902e+01
 6.9742667e+00   4.1719381e+01
 6.9797333e+00   4.2036507e+01
 6.9852000e+00   4.1588934e+01
 6.9906667e+00   4.2236465e+01
 6.9961333e+00   4.1793783e+01
 7.0016000e+00   4.2344623e+01
 7.0070667e+00   4.1656359e+01
 7.0125333e+00   4.2453904e+01
 7.0180000e+00   4.1952187e+01
 7.0234667e+00   4.2251201e+01
 7.0289333e+00   4.1996862e+01
 7.0344000e+00   4.2208889e+01
 7.0398667e+00   4.1973507e+01
 7.0453333e+00   4.2218476e+01
 7.0508000e+00   4.2055419e+01
 7.0562667e+00   4.2277019e+01
 7.0617333e+00   4.2510646e+01
 7.0672000e+00   4.2282129e+01
 7.0726667e+00   4.2843268e+01
 7.0781333e+00   4.2750841e+01
 7.0836000e+00   4.2977100e+01
 7.0890667e+00   4.2989018e+01
 7.0945333e+00   4.3225609e+01
 7.1000000e+00   4.3156749e+01
 7.1054667e+00   4.3689042e+01
 7.1109333e+00   4.3258010e+01
 7.1164000e+00   4.3793540e+01
 7.1218667e+00   4.3685364e+01
 7.1273333e+00   4.3811146e+01
 7.1328000e+00   4.3739325e+01
 7.1382667e+00   4.3971837e+01
 7.1437333e+00   4.3692753e+01
 7.1492000e+00   4.3866191e+01
 7.1546667e+00   4.3760955e+01
 7.1601333e+00   4.3929924e+01
 7.1656000e+00   4.3688728e+01
 7.1710667e+00   4.4201794e+01
 7.1765333e+00   4.3833414e+01
 7.1820000e+00   4.4094243e+01
 7.1874667e+00   4.4293903e+01
 7.1929333e+00   4.5132851e+01
 7.1984000e+00   4.4582969e+01
 7.2038667e+00   4.4661790e+01
 7.2093333e+00   4.4448539e+01
 7.2148000e+00   4.4281227e+01
 7.2202667e+00   4.4319444e+01
 7.2257333e+00   4.4020614e+01
 7.2312000e+00   4.4344752e+01
 7.2366667e+00   4.4295607e+01
 7.2421333e+00   4.4365503e+01
 7.2476000e+00   4.4500368e+01
 7.2530667e+00   4.4434985e+01
 7.2585333e+00   4.4683520e+01
 7.2640000e+00   4.4664414e+01
 7.2694667e+00   4.4658030e+01
 7.2749333e+00   4.4882572e+01
 7.2804000e+00   4.4864798e+01
 7.2858667e+00   4.4923632e+01
 7.2913333e+00   4.5066979e+01
 7.2968000e+00   4.5116066e+01
 7.3022667e+00   4.5272898e+01
 7.3077333e+00   4.5259713e+01
 7.3132000e+00   4.5346769e+01
 7.3186667e+00   4.5342041e+01
 7.3241333e+00   4.5573514e+01
 7.3296000e+00   4.5656020e+01
 7.3350667e+00   4.5610939e+01
 7.3405333e+00   4.5985430e+01
 7.3460000e+00   4.5803205e+01
 7.3514667e+00   4.6052511e+01
 7.3569333e+00   4.6189771e+01
 7.3624000e+00   4.6122608e+01
 7.3678667e+00   4.6173611e+01
 7.3733333e+00   4.6305536e+01
 7.3788000e+00   4.6229920e+01
 7.3842667e+00   4.6409189e+01
 7.3897333e+00   4.6672341e+01
 7.3952000e+00   4.6615113e+01
 7.4006667e+00   4.6778568e+01
 7.4061333e+00   4.6911916e+01
 7.4116000e+00   4.7000898e+01
 7.4170667e+00   4.7163273e+01
 7.4225333e+00   4.7122144e+01
 7.4280000e+00   4.7169615e+01
 7.4334667e+00   4.7366606e+01
 7.4389333e+00   4.7441993e+01
 7.4444000e+00   4.7719204e+01
 7.4498667e+00   4.7778895e+01
 7.4553333e+00   4.8165732e+01
 7.4608000e+00   4.8250029e+01
 7.4662667e+00   4.8302194e+01
 7.4717333e+00   4.7952141e+01
 7.4772000e+00   4.8505465e+01
 7.4826667e+00   4.7986858e+01
 7.4881333e+00   4.8549521e+01
 7.4936000e+00   4.8380932e+01
 7.4990667e+00   4.8735651e+01
 7.5045333e+00   4.8668219e+01
 7.5100000e+00   4.9158281e+01
 7.5154667e+00   4.8900505e+01
 7.5209333e+00   4.9273361e+01
 7.5264000e+00   4.8944911e+01
 7.5318667e+00   4.9353201e+01
 7.5373333e+00   4.9489314e+01
 7.5428000e+00   4.9574233e+01
 7.5482667e+00   4.9594154e+01
 7.5537333e+00   4.9961173e+01
 7.5592000e+00   5.0039595e+01
 7.5646667e+00   5.0126271e+01
 7.5701333e+00   5.0428364e+01
 7.5756000e+00   5.0462336e+01
 7.5810667e+00   5.0815947e+01
 7.5865333e+00   5.0779927e+01
 7.5920000e+00   5.1292094e+01
 7.5974667e+00   5.1086821e+01
 7.6029333e+00   5.1529110e+01
 7.6084000e+00   5.1756335e+01
 7.6138667e+00   5.2056080e+01
 7.6193333e+00   5.2356046e+01
 7.6248000e+00   5.2427791e+01
 7.6302667e+00   5.2578347e+01
 7.6357333e+00   5.3251275e+01
 7.6412000e+00   5.2825831e+01
 7.6466667e+00   5.3580507e+01
 7.6521333e+00   5.3692929e+01
 7.6576000e+00   5.3958831e+01
 7.6630667e+00   5.4236059e+01
 7.6685333e+00   5.4884231e+01
 7.6740000e+00   5.5196874e+01
 7.6794667e+00   5.5426252e+01
 7.6849333e+00   5.5770899e+01
 7.6904000e+00   5.6502969e+01
 7.6958667e+00   5.6550564e+01
 7.7013333e+00   5.6637379e+01
 7.7068000e+00   5.7563254e+01
 7.7122667e+00   5.7269881e+01
 7.7177333e+00   5.9051704e+01
 7.7232000e+00   5.8730529e+01
 7.7286667e+00   5.9581686e+01
 7.7341333e+00   6.1239277e+01
 7.7396000e+00   6.1493957e+01
 7.7450667e+00   6.4020265e+01
 7.7505333e+00   6.6857434e+01
 7.7560000e+00   6.8093975e+01
 7.7614667e+00   7.4358277e+01
 7.7669333e+00   8.0798223e+01
 7.7724000e+00   8.3016961e+01
 7.7778667e+00   8.6013452e+01
 7.7833333e+00   9.2094468e+01
 7.7888000e+00   9.7148453e+01
 7.7942667e+00   9.6773986e+01
 7.7997333e+00   1.0492211e+02
 7.8052000e+00   1.1397506e+02
 7.8106667e+00   1.1245534e+02
 7.8161333e+00   1.2445302e+02
 7.8216000e+00   1.3325708e+02
 7.8270667e+00   1.1649102e+02
 7.8325333e+00   1.4040486e+02
 7.8380000e+00   1.1759287e+02
 7.8434667e+00   1.3572696e+02
 7.8489333e+00   1.1144307e+02
 7.8544000e+00   1.2481091e+02
 7.8598667e+00   9.4428250e+01
 7.8653333e+00   9.2410112e+01
 7.8708000e+00   7.7603764e+01
 7.8762667e+00   7.1076262e+01
 7.8817333e+00   6.6692912e+01
 7.8872000e+00   6.5462475e+01
 7.8926667e+00   6.2943305e+01
 7.8981333e+00   6.2991344e+01
 7.9036000e+00   6.2023015e+01
 7.9090667e+00   6.1005757e+01
 7.9145333e+00   6.1556921e+01
 7.9200000e+00   6.1156390e+01
 7.9254667e+00   5.9881291e+01
 7.9309333e+00   6.0444021e+01
 7.9364000e+00   5.9613570e+01
 7.9418667e+00   5.9102275e+01
 7.9473333e+00   5.9481663e+01
 7.9528000e+00   5.8417885e+01
 7.9582667e+00   5.8616605e+01
 7.9637333e+00   5.8126571e+01
 7.9692000e+00   5.7996332e+01
 7.9746667e+00   5.7469872e+01
 7.9801333e+00   5.7631538e+01
 7.9856000e+00   5.7102474e+01
 7.9910667e+00   5.7055204e+01
 7.9965333e+00   5.7074525e+01
 8.0020000e+00   5.6963178e+01
 8.0074667e+00   5.6570350e+01
 8.0129333e+00   5.7070903e+01
 8.0184000e+00   5.7125511e+01
 8.0238667e+00   5.6508372e+01
 8.0293333e+00   5.7496754e+01
 8.0348000e+00   5.7023522e+01
 8.0402667e+00   5.7349047e+01
 8.0457333e+00   5.7963308e+01
 8.0512000e+00   5.8057472e+01
 8.0566667e+00   6.2102553e+01
 8.0621333e+00   6.1450149e+01
 8.0676000e+00   7.6181068e+01
 8.0730667e+00   6.9564067e+01
 8.0785333e+00   8.5338276e+01
 8.0840000e+00   7.3699694e+01
 8.0894667e+00   9.2589127e+01
 8.0949333e+00   7.9544712e+01
 8.1004000e+00   1.1811002e+02
 8.1058667e+00   1.1002859e+02
 8.1113333e+00   1.4382923e+02
 8.1168000e+00   1.3462584e+02
 8.1222667e+00   1.3361905e+02
 8.1277333e+00   1.2251560e+02
 8.1332000e+00   1.3191442e+02
 8.1386667e+00   1.0890977e+02
 8.1441333e+00   1.1583556e+02
 8.1496000e+00   1.0005322e+02
 8.1550667e+00   1.0393489e+02
 8.1605333e+00   9.4950034e+01
 8.1660000e+00   8.8325730e+01
 8.1714667e+00   9.6826464e+01
 8.1769333e+00   8.6923339e+01
 8.1824000e+00   8.2760217e+01
 8.1878667e+00   7.5049344e+01
 8.1933333e+00   6.7355689e+01
 8.1988000e+00   6.0100848e+01
 8.2042667e+00   5.7918412e+01
 8.2097333e+00   5.6730856e+01
 8.2152000e+00   5.6172618e+01
 8.2206667e+00   5.5707791e+01
 8.2261333e+00   5.5684117e+01
 8.2316000e+00   5.5092718e+01
 8.2370667e+00   5.5102401e+01
 8.2425333e+00   5.4676845e+01
 8.2480000e+00   5.4446625e+01
 8.2534667e+00   5.4008066e+01
 8.2589333e+00   5.4339881e+01
 8.2644000e+00   5.3786636e+01
 8.2698667e+00   5.4192144e+01
 8.2753333e+00   5.3412653e+01
 8.2808000e+00   5.3841316e+01
 8.2862667e+00   5.3364989e+01
 8.2917333e+00   5.3345104e+01
 8.2972000e+00   5.3120093e+01
 8.3026667e+00   5.3117619e+01
 8.3081333e+00   5.2779738e+01
 8.3136000e+00   5.2815435e+01
 8.3190667e+00   5.2614218e+01
 8.3245333e+00   5.2561111e+01
 8.3300000e+00   5.2528054e+01
 8.3354667e+00   5.2223307e+01
 8.3409333e+00   5.2453841e+01
 8.3464000e+00   5.2268239e+01
 8.3518667e+00   5.2237918e+01
 8.3573333e+00   5.2159014e+01
 8.3628000e+00   5.2395831e+01
 8.3682667e+00   5.1945960e+01
 8.3737333e+00   5.2435828e+01
 8.3792000e+00   5.1901118e+01
 8.3846667e+00   5.2281702e+01
 8.3901333e+00   5.1784273e+01
 8.3956000e+00   5.2171294e+01
 8.4010667e+00   5.1938661e+01
 8.4065333e+00   5.1932201e+01
 8.4120000e+00   5.1831056e+01
 8.4174667e+00   5.1877414e+01
 8.4229333e+00   5.1638334e+01
 8.4284000e+00   5.1892924e+01
 8.4338667e+00   5.1683656e+01
 8.4393333e+00   5.1693524e+01
 8.4448000e+00   5.1623566e+01
 8.4502667e+00   5.1613556e+01
 8.4557333e+00   5.1706597e+01
 8.4612000e+00   5.1515672e+01
 8.4666667e+00   5.1751783e+01
 8.4721333e+00   5.1389999e+01
 8.4776000e+00   5.2051134e+01
 8.4830667e+00   5.1640085e+01
 8.4885333e+00   5.2013716e+01
 8.4940000e+00   5.1447504e+01
 8.4994667e+00   5.2032111e+01
 8.5049333e+00   5.1393227e+01
 8.5104000e+00   5.1635206e+01
 8.5158667e+00   5.1367620e+01
 8.5213333e+00   5.1439581e+01
 8.5268000e+00   5.1353650e+01
 8.5322667e+00   5.1306452e+01
 8.5377333e+00   5.1236230e+01
 8.5432000e+00   5.1176570e+01
 8.5486667e+00   5.0729959e+01
 8.5541333e+00   5.1001811e+01
 8.5596000e+00   5.0814180e+01
 8.5650667e+00   5.0899668e+01
 8.5705333e+00   5.0734411e+01
 8.5760000e+00   5.0795452e+01
 8.5814667e+00   5.0889044e+01
 8.5869333e+00   5.0733134e+01
 8.5924000e+00   5.0746081e+01
 8.5978667e+00   5.0505470e+01
 8.6033333e+00   5.0894718e+01
 8.6088000e+00   5.0153404e+01
 8.6142667e+00   5.0849603e+01
 8.6197333e+00   5.0197072e+01
 8.6252000e+00   5.0654924e+01
 8.6306667e+00   5.0130833e+01
 8.6361333e+00   5.0346960e+01
 8.6416000e+00   4.9962728e+01
 8.6470667e+00   5.0225520e+01
 8.6525333e+00   4.9903378e+01
 8.6580000e+00   4.9909069e+01
 8.6634667e+00   4.9623384e+01
 8.6689333e+00   4.9970406e+01
 8.6744000e+00   4.9658742e+01
 8.6798667e+00   4.9575547e+01
 8.6853333e+00   4.9526241e+01
 8.6908000e+00   4.9520318e+01
 8.6962667e+00   4.9524856e+01
 8.7017333e+00   4.9285804e+01
 8.7072000e+00   4.9883611e+01
 8.7126667e+00   4.9388762e+01
 8.7181333e+00   4.9679157e+01
 8.7236000e+00   4.9334601e+01
 8.7290667e+00   4.9721610e+01
 8.7345333e+00   4.9280385e+01
 8.7400000e+00   4.9294056e+01
 8.7454667e+00   4.9272971e+01
 8.7509333e+00   4.9462318e+01
 8.7564000e+00   4.8999230e+01
 8.7618667e+00   4.9449129e+01
 8.7673333e+00   4.9073610e+01
 8.7728000e+00   4.9144709e+01
 8.7782667e+00   4.9139223e+01
 8.7837333e+00   4.8958107e+01
 8.7892000e+00   4.9043504e+01
 8.7946667e+00   4.9113219e+01
 8.8001333e+00   4.9061522e+01
 8.8056000e+00   4.8859316e+01
 8.8110667e+00   4.8960283e+01
 8.8165333e+00   4.8942049e+01
 8.8220000e+00   4.8904590e+01
 8.8274667e+00   4.8682003e+01
 8.8329333e+00   4.9138905e+01
 8.8384000e+00   4.8684857e+01
 8.8438667e+00   4.9046936e+01
 8.8493333e+00   4.8812025e+01
 8.8548000e+00   4.9114501e+01
 8.8602667e+00   4.8896016e+01
 8.8657333e+00   4.8931839e+01
 8.8712000e+00   4.8733136e+01
 8.8766667e+00   4.9048263e+01
 8.8821333e+00   4.8690276e+01
 8.8876000e+00   4.8872522e+01
 8.8930667e+00   4.8579205e+01
 8.8985333e+00   4.8959943e+01
 8.9040000e+00   4.8596392e+01
 8.9094667e+00   4.8585073e+01
 8.9149333e+00   4.8609491e+01
 8.9204000e+00   4.8489355e+01
 8.9258667e+00   4.8510790e+01
 8.9313333e+00   4.8601698e+01
 8.9368000e+00   4.8446257e+01
 8.9422667e+00   4.8425687e+01
 8.9477333e+00   4.8508050e+01
 8.9532000e+00   4.8549817e+01
 8.9586667e+00   4.8519703e+01
 8.9641333e+00   4.8234011e+01
 8.9696000e+00   4.8611203e+01
 8.9750667e+00   4.8290631e+01
 8.9805333e+00   4.8520630e+01
 8.9860000e+00   4.8612490e+01
 8.9914667e+00   4.8654942e+01
 8.9969333e+00   4.8525149e+01
 9.0024000e+00   4.9453410e+01
 9.0078667e+00   4.9202977e+01
 9.0133333e+00   5.1424969e+01
 9.0188000e+00   5.0928586e+01
 9.0242667e+00   6.0556678e+01
 9.0297333e+00   5.5467857e+01
 9.0352000e+00   5.7372376e+01
 9.0406667e+00   5.7953688e+01
 9.0461333e+00   5.8710897e+01
 9.0516000e+00   5.3850886e+01
 9.0570667e+00   5.0926344e+01
 9.0625333e+00   5.1440570e+01
 9.0680000e+00   4.9751134e+01
 9.0734667e+00   4.9610327e+01
 9.0789333e+00   4.9028018e+01
 9.0844000e+00   4.9197289e+01
 9.0898667e+00   4.8067587e+01
 9.0953333e+00   4.7896323e+01
 9.1008000e+00   4.7154157e+01
 9.1062667e+00   4.7338025e+01
 9.1117333e+00   4.6754223e+01
 9.1172000e+00   4.6907730e+01
 9.1226667e+00   4.6715410e+01
 9.1281333e+00   4.6498345e+01
 9.1336000e+00   4.6595508e+01
 9.1390667e+00   4.6693127e+01
 9.1445333e+00   4.6135263e+01
 9.1500000e+00   4.6505391e+01
 9.1554667e+00   4.5969915e+01
 9.1609333e+00   4.6202359e+01
 9.1664000e+00   4.5852591e+01
 9.1718667e+00   4.6011546e+01
 9.1773333e+00   4.5594595e+01
 9.1828000e+00   4.5821973e+01
 9.1882667e+00   4.5418436e+01
 9.1937333e+00   4.5576556e+01
 9.1992000e+00   4.5396191e+01
 9.2046667e+00   4.5509982e+01
 9.2101333e+00   4.5266621e+01
 9.2156000e+00   4.5333145e+01
 9.2210667e+00   4.5055289e+01
 9.2265333e+00   4.5143075e+01
 9.2320000e+00   4.5179536e+01
 9.2374667e+00   4.4951292e+01
 9.2429333e+00   4.4911455e+01
 9.2484000e+00   4.5132838e+01
 9.2538667e+00   4.4950131e+01
 9.2593333e+00   4.4835227e+01
 9.2648000e+00   4.5216285e+01
 9.2702667e+00   4.4940525e+01
 9.2757333e+00   4.5047356e+01
 9.2812000e+00   4.5137122e+01
 9.2866667e+00   4.4876784e+01
 9.2921333e+00   4.4714469e+01
 9.2976000e+00   4.5076398e+01
 9.3030667e+00   4.4235666e+01
 9.3085333e+00   4.4991487e+01
 9.3140000e+00   4.4357487e+01
 9.3194667e+00   4.4681144e+01
 9.3249333e+00   4.4429788e+01
 9.3304000e+00   4.4546143e+01
 9.3358667e+00   4.4589668e+01
 9.3413333e+00   4.4362383e+01
 9.3468000e+00   4.4124383e+01
 9.3522667e+00   4.4393331e+01
 9.3577333e+00   4.4113896e+01
 9.3632000e+00   4.4149245e+01
 9.3686667e+00   4.4113102e+01
 9.3741333e+00   4.4177315e+01
 9.3796000e+00   4.4196975e+01
 9.3850667e+00   4.4121003e+01
 9.3905333e+00   4.4176023e+01
 9.3960000e+00   4.4189792e+01
 9.4014667e+00   4.4023756e+01
 9.4069333e+00   4.4223510e+01
 9.4124000e+00   4.4392332e+01
 9.4178667e+00   4.4447904e+01
 9.4233333e+00   4.4494425e+01
 9.4288000e+00   4.4646766e+01
 9.4342667e+00   4.4736550e+01
 9.4397333e+00   4.4805356e+01
 9.4452000e+00   4.4963667e+01
 9.4506667e+00   4.5215836e+01
 9.4561333e+00   4.5415503e+01
 9.4616000e+00   4.6717615e+01
 9.4670667e+00   4.6638249e+01
 9.4725333e+00   5.6285150e+01
 9.4780000e+00   5.2240832e+01
 9.4834667e+00   5.8717156e+01
 9.4889333e+00   7.1155166e+01
 9.4944000e+00   6.5830597e+01
 9.4998667e+00   9.3589910e+01
 9.5053333e+00   8.7991811e+01
 9.5108000e+00   9.4543363e+01
 9.5162667e+00   8.6793917e+01
 9.5217333e+00   7.9899576e+01
 9.5272000e+00   8.4318059e+01
 9.5326667e+00   7.9036696e+01
 9.5381333e+00   8.3279769e+01
 9.5436000e+00   8.1510024e+01
 9.5490667e+00   9.2000540e+01
 9.5545333e+00   1.0726500e+02
 9.5600000e+00   1.1181891e+02
 9.5654667e+00   1.0221711e+02
 9.5709333e+00   1.0410021e+02
 9.5764000e+00   9.4330197e+01
 9.5818667e+00   8.6098585e+01
 9.5873333e+00   6.4116040e+01
 9.5928000e+00   5.5123000e+01
 9.5982667e+00   5.0157960e+01
 9.6037333e+00   4.6353551e+01
 9.6092000e+00   4.4972719e+01
 9.6146667e+00   4.4222056e+01
 9.6201333e+00   4.3809880e+01
 9.6256000e+00   4.3471937e+01
 9.6310667e+00   4.3259585e+01
 9.6365333e+00   4.2956245e+01
 9.6420000e+00   4.2829185e+01
 9.6474667e+00   4.2751152e+01
 9.6529333e+00   4.2605941e+01
 9.6584000e+00   4.2416102e+01
 9.6638667e+00   4.2501865e+01
 9.6693333e+00   4.1945683e+01
 9.6748000e+00   4.2452169e+01
 9.6802667e+00   4.1875630e+01
 9.6857333e+00   4.2067484e+01
 9.6912000e+00   4.1928489e+01
 9.6966667e+00   4.1916397e+01
 9.7021333e+00   4.1559473e+01
 9.7076000e+00   4.1987822e+01
 9.7130667e+00   4.1448717e+01
 9.7185333e+00   4.1729500e+01
 9.7240000e+00   4.1363313e+01
 9.7294667e+00   4.1473231e+01
 9.7349333e+00   4.1245895e+01
 9.7404000e+00   4.1203734e+01
 9.7458667e+00   4.1056713e+01
 9.7513333e+00   4.1004804e+01
 9.7568000e+00   4.0874614e+01
 9.7622667e+00   4.0912506e+01
 9.7677333e+00   4.0506469e+01
 9.7732000e+00   4.0681996e+01
 9.7786667e+00   4.0595350e+01
 9.7841333e+00   4.0577808e+01
 9.7896000e+00   4.0425147e+01
 9.7950667e+00   4.0331889e+01
 9.8005333e+00   4.0619862e+01
 9.8060000e+00   4.0327555e+01
 9.8114667e+00   4.0593336e+01
 9.8169333e+00   4.0474666e+01
 9.8224000e+00   4.0661989e+01
 9.8278667e+00   4.0408126e+01
 9.8333333e+00   4.1019774e+01
 9.8388000e+00   4.0402964e+01
 9.8442667e+00   4.0839143e+01
 9.8497333e+00   4.0686093e+01
 9.8552000e+00   4.0810133e+01
 9.8606667e+00   4.0523689e+01
 9.8661333e+00   4.1135128e+01
 9.8716000e+00   4.0733952e+01
 9.8770667e+00   4.0780079e+01
 9.8825333e+00   4.1118752e+01
 9.8880000e+00   4.1078313e+01
 9.8934667e+00   4.1121019e+01
 9.8989333e+00   4.1694514e+01
 9.9044000e+00   4.2033657e+01
 9.9098667e+00   4.3200802e+01
 9.9153333e+00   4.4993488e+01
 9.9208000e+00   4.8895459e+01
 9.9262667e+00   5.0956984e+01
 9.9317333e+00   5.3760992e+01
 9.9372000e+00   6.1371098e+01
 9.9426667e+00   7.1194286e+01
 9.9481333e+00   5.9401319e+01
 9.9536000e+00   8.0583850e+01
 9.9590667e+00   6.4963259e+01
 9.9645333e+00   6.9852867e+01
 9.9700000e+00   7.1407833e+01
 9.9754667e+00   6.3470298e+01
 9.9809333e+00   7.0507880e+01
 9.9864000e+00   7.3514028e+01
 9.9918667e+00   6.4379988e+01
 9.9973333e+00   6.5992299e+01
 1.0002800e+01   5.2948724e+01
 1.0008267e+01   4.5626807e+01
 1.0013733e+01   4.6262468e+01
 1.0019200e+01   4.3858529e+01
 1.0024667e+01   4.2377593e+01
 1.0030133e+01   4.1978409e+01
 1.0035600e+01   4.2066971e+01
 1.0041067e+01   4.1816924e+01
 1.0046533e+01   4.1298229e+01
 1.0052000e+01   4.2258710e+01
 1.0057467e+01   4.2867332e+01
 1.0062933e+01   4.1163315e+01
 1.0068400e+01   4.5104633e+01
 1.0073867e+01   5.0996183e+01
 1.0079333e+01   4.2752620e+01
 1.0084800e+01   5.9603342e+01
 1.0090267e+01   6.9451574e+01
 1.0095733e+01   5.4643571e+01
 1.0101200e+01   7.5396696e+01
 1.0106667e+01   7.8995550e+01
 1.0112133e+01   7.1300090e+01
 1.0117600e+01   7.8500170e+01
 1.0123067e+01   7.5801694e+01
 1.0128533e+01   6.0153966e+01
 1.0134000e+01   5.8141745e+01
 1.0139467e+01   4.9870177e+01
 1.0144933e+01   4.4378170e+01
 1.0150400e+01   4.2911770e+01
 1.0155867e+01   4.1985783e+01
 1.0161333e+01   4.0350484e+01
 1.0166800e+01   4.0411212e+01
 1.0172267e+01   4.0014984e+01
 1.0177733e+01   3.9464952e+01
 1.0183200e+01   3.9396309e+01
 1.0188667e+01   3.9311108e+01
 1.0194133e+01   3.9007737e+01
 1.0199600e+01   3.8981887e+01
 1.0205067e+01   3.8718993e+01
 1.0210533e+01   3.8724146e+01
 1.0216000e+01   3.8529702e+01
 1.0221467e+01   3.8478199e+01
 1.0226933e+01   3.8243720e+01
 1.0232400e+01   3.8310827e+01
 1.0237867e+01   3.8004222e+01
 1.0243333e+01   3.8362780e+01
 1.0248800e+01   3.7704145e+01
 1.0254267e+01   3.8158723e+01
 1.0259733e+01   3.7771376e+01
 1.0265200e+01   3.7892668e+01
 1.0270667e+01   3.7778487e+01
 1.0276133e+01   3.7705456e+01
 1.0281600e+01   3.7512522e+01
 1.0287067e+01   3.7600562e+01
 1.0292533e+01   3.7422155e+01
 1.0298000e+01   3.7362350e+01
 1.0303467e+01   3.7382196e+01
 1.0308933e+01   3.7374597e+01
 1.0314400e+01   3.7295145e+01
 1.0319867e+01   3.7292782e+01
 1.0325333e+01   3.7262199e+01
 1.0330800e+01   3.7043263e+01
 1.0336267e+01   3.7079628e+01
 1.0341733e+01   3.7146051e+01
 1.0347200e+01   3.7049253e+01
 1.0352667e+01   3.6792881e+01
 1.0358133e+01   3.7075569e+01
 1.0363600e+01   3.6886089e+01
 1.0369067e+01   3.6867775e+01
 1.0374533e+01   3.6783472e+01
 1.0380000e+01   3.6872019e+01
 1.0385467e+01   3.6735194e+01
 1.0390933e+01   3.6742267e+01
 1.0396400e+01   3.6577247e+01
 1.0401867e+01   3.6633441e+01
 1.0407333e+01   3.6628980e+01
 1.0412800e+01   3.6650212e+01
 1.0418267e+01   3.6359325e+01
 1.0423733e+01   3.6726032e+01
 1.0429200e+01   3.6413577e+01
 1.0434667e+01   3.6810988e+01
 1.0440133e+01   3.6749148e+01
 1.0445600e+01   3.6597561e+01
 1.0451067e+01   3.7529061e+01
 1.0456533e+01   3.6521483e+01
 1.0462000e+01   3.6659870e+01
 1.0467467e+01   3.6537525e+01
 1.0472933e+01   3.6579584e+01
 1.0478400e+01   3.6328228e+01
 1.0483867e+01   3.6484912e+01
 1.0489333e+01   3.6339337e+01
 1.0494800e+01   3.6341918e+01
 1.0500267e+01   3.6191716e+01
 1.0505733e+01   3.6349567e+01
 1.0511200e+01   3.6105415e+01
 1.0516667e+01   3.6271434e+01
 1.0522133e+01   3.6074271e+01
 1.0527600e+01   3.6238466e+01
 1.0533067e+01   3.6187820e+01
 1.0538533e+01   3.6206688e+01
 1.0544000e+01   3.6120602e+01
 1.0549467e+01   3.6198735e+01
 1.0554933e+01   3.6130176e+01
 1.0560400e+01   3.6075896e+01
 1.0565867e+01   3.6088582e+01
 1.0571333e+01   3.6105959e+01
 1.0576800e+01   3.5960818e+01
 1.0582267e+01   3.6065176e+01
 1.0587733e+01   3.6050745e+01
 1.0593200e+01   3.6202798e+01
 1.0598667e+01   3.6123328e+01
 1.0604133e+01   3.6204280e+01
 1.0609600e+01   3.6064170e+01
 1.0615067e+01   3.6238837e+01
 1.0620533e+01   3.6145449e+01
 1.0626000e+01   3.6098015e+01
 1.0631467e+01   3.6137724e+01
 1.0636933e+01   3.6030130e+01
 1.0642400e+01   3.6203235e+01
 1.0647867e+01   3.5930341e+01
 1.0653333e+01   3.6203473e+01
 1.0658800e+01   3.5904321e+01
 1.0664267e+01   3.6166768e+01
 1.0669733e+01   3.6025850e+01
 1.0675200e+01   3.6159439e+01
 1.0680667e+01   3.5944204e+01
 1.0686133e+01   3.6082049e+01
 1.0691600e+01   3.5932221e+01
 1.0697067e+01   3.6136839e+01
 1.0702533e+01   3.5974531e+01
 1.0708000e+01   3.6018198e+01
 1.0713467e+01   3.5934826e+01
 1.0718933e+01   3.6406422e+01
 1.0724400e+01   3.5859912e+01
 1.0729867e+01   3.5998965e+01
 1.0735333e+01   3.5813098e+01
 1.0740800e+01   3.5963091e+01
 1.0746267e+01   3.5824628e+01
 1.0751733e+01   3.5996687e+01
 1.0757200e+01   3.5693995e+01
 1.0762667e+01   3.5852652e+01
 1.0768133e+01   3.5709404e+01
 1.0773600e+01   3.5996534e+01
 1.0779067e+01   3.5606451e+01
 1.0784533e+01   3.5760614e+01
 1.0790000e+01   3.5641267e+01
 1.0795467e+01   3.5856555e+01
 1.0800933e+01   3.5644999e+01
 1.0806400e+01   3.5872860e+01
 1.0811867e+01   3.5493414e+01
 1.0817333e+01   3.5876761e+01
 1.0822800e+01   3.5593452e+01
 1.0828267e+01   3.5888465e+01
 1.0833733e+01   3.5784076e+01
 1.0839200e+01   3.5748242e+01
 1.0844667e+01   3.5662448e+01
 1.0850133e+01   3.5880061e+01
 1.0855600e+01   3.5760365e+01
 1.0861067e+01   3.5750874e+01
 1.0866533e+01   3.5741042e+01
 1.0872000e+01   3.5730622e+01
 1.0877467e+01   3.5957832e+01
 1.0882933e+01   3.5700085e+01
 1.0888400e+01   3.5773004e+01
 1.0893867e+01   3.5671886e+01
 1.0899333e+01   3.5888552e+01
 1.0904800e+01   3.5525621e+01
 1.0910267e+01   3.5910852e+01
 1.0915733e+01   3.5600902e+01
 1.0921200e+01   3.5727938e+01
 1.0926667e+01   3.5795119e+01
 1.0932133e+01   3.5849018e+01
 1.0937600e+01   3.5848848e+01
 1.0943067e+01   3.6087532e+01
 1.0948533e+01   3.5941690e+01
 1.0954000e+01   3.6062601e+01
 1.0959467e+01   3.5969808e+01
 1.0964933e+01   3.6121629e+01
 1.0970400e+01   3.5866126e+01
 1.0975867e+01   3.6238553e+01
 1.0981333e+01   3.5867616e+01
 1.0986800e+01   3.6171151e+01
 1.0992267e+01   3.5933726e+01
 1.0997733e+01   3.6211939e+01
 1.1003200e+01   3.6181992e+01
 1.1008667e+01   3.6331540e+01
 1.1014133e+01   3.5874417e+01
 1.1019600e+01   3.6434143e+01
 1.1025067e+01   3.5943270e+01
 1.1030533e+01   3.6353574e+01
 1.1036000e+01   3.6192138e+01
 1.1041467e+01   3.6268162e+01
 1.1046933e+01   3.6368343e+01
 1.1052400e+01   3.6420327e+01
 1.1057867e+01   3.6635823e+01
 1.1063333e+01   3.6839567e+01
 1.1068800e+01   3.6584150e+01
 1.1074267e+01   3.7100250e+01
 1.1079733e+01   3.6650953e+01
 1.1085200e+01   3.6919021e+01
 1.1090667e+01   3.6778691e+01
 1.1096133e+01   3.6880212e+01
 1.1101600e+01   3.6618920e+01
 1.1107067e+01   3.7017905e+01
 1.1112533e+01   3.6472576e+01
 1.1118000e+01   3.6695000e+01
 1.1123467e+01   3.6607079e+01
 1.1128933e+01   3.6370913e+01
 1.1134400e+01   3.6200721e+01
 1.1139867e+01   3.6457484e+01
 1.1145333e+01   3.6175126e+01
 1.1150800e+01   3.6321714e+01
 1.1156267e+01   3.6261522e+01
 1.1161733e+01   3.6638673e+01
 1.1167200e+01   3.6272090e+01
 1.1172667e+01   3.6391435e+01
 1.1178133e+01   3.6429812e+01
 1.1183600e+01   3.6456381e+01
 1.1189067e+01   3.6321105e+01
 1.1194533e+01   3.6324777e+01
