PWDR ff_004767_sum_norm_dc_0.tif Azm= 352.fxye Bank 1
2-Theta Angle (Degrees)
Intensity
       1500
 3.0000000e+00   4.4181251e+01
 3.0054667e+00   4.3872922e+01
 3.0109333e+00   4.3803027e+01
 3.0164000e+00   4.4017190e+01
 3.0218667e+00   4.3614485e+01
 3.0273333e+00   4.3315728e+01
 3.0328000e+00   4.3659286e+01
 3.0382667e+00   4.2925863e+01
 3.0437333e+00   4.2782589e+01
 3.0492000e+00   4.2989262e+01
 3.0546667e+00   4.2635670e+01
 3.0601333e+00   4.2452649e+01
 3.0656000e+00   4.2345881e+01
 3.0710667e+00   4.1987518e+01
 3.0765333e+00   4.1664528e+01
 3.0820000e+00   4.1367716e+01
 3.0874667e+00   4.0948385e+01
 3.0929333e+00   4.0777965e+01
 3.0984000e+00   4.0533361e+01
 3.1038667e+00   4.0389519e+01
 3.1093333e+00   4.0127517e+01
 3.1148000e+00   3.9911934e+01
 3.1202667e+00   3.9922376e+01
 3.1257333e+00   3.9656278e+01
 3.1312000e+00   3.9508090e+01
 3.1366667e+00   3.9385585e+01
 3.1421333e+00   3.9178520e+01
 3.1476000e+00   3.9004445e+01
 3.1530667e+00   3.9135684e+01
 3.1585333e+00   3.8782311e+01
 3.1640000e+00   3.8624674e+01
 3.1694667e+00   3.8450704e+01
 3.1749333e+00   3.8373560e+01
 3.1804000e+00   3.8099479e+01
 3.1858667e+00   3.7997628e+01
 3.1913333e+00   3.7957541e+01
 3.1968000e+00   3.7749857e+01
 3.2022667e+00   3.7755136e+01
 3.2077333e+00   3.7635796e+01
 3.2132000e+00   3.7557835e+01
 3.2186667e+00   3.7455162e+01
 3.2241333e+00   3.7506795e+01
 3.2296000e+00   3.7215594e+01
 3.2350667e+00   3.7133405e+01
 3.2405333e+00   3.7062252e+01
 3.2460000e+00   3.6984186e+01
 3.2514667e+00   3.6705952e+01
 3.2569333e+00   3.6648841e+01
 3.2624000e+00   3.6386664e+01
 3.2678667e+00   3.6126344e+01
 3.2733333e+00   3.6025190e+01
 3.2788000e+00   3.5735288e+01
 3.2842667e+00   3.5865493e+01
 3.2897333e+00   3.5657071e+01
 3.2952000e+00   3.5532680e+01
 3.3006667e+00   3.5348809e+01
 3.3061333e+00   3.5320546e+01
 3.3116000e+00   3.5196028e+01
 3.3170667e+00   3.5150516e+01
 3.3225333e+00   3.4973172e+01
 3.3280000e+00   3.5044254e+01
 3.3334667e+00   3.4747614e+01
 3.3389333e+00   3.4739925e+01
 3.3444000e+00   3.4688145e+01
 3.3498667e+00   3.4501472e+01
 3.3553333e+00   3.4462881e+01
 3.3608000e+00   3.4374448e+01
 3.3662667e+00   3.4461945e+01
 3.3717333e+00   3.4166239e+01
 3.3772000e+00   3.4150554e+01
 3.3826667e+00   3.4015346e+01
 3.3881333e+00   3.3927132e+01
 3.3936000e+00   3.3899661e+01
 3.3990667e+00   3.3866834e+01
 3.4045333e+00   3.3742666e+01
 3.4100000e+00   3.3914025e+01
 3.4154667e+00   3.3575853e+01
 3.4209333e+00   3.3597161e+01
 3.4264000e+00   3.3424245e+01
 3.4318667e+00   3.3402288e+01
 3.4373333e+00   3.3313028e+01
 3.4428000e+00   3.3275834e+01
 3.4482667e+00   3.3357711e+01
 3.4537333e+00   3.3221069e+01
 3.4592000e+00   3.3094355e+01
 3.4646667e+00   3.3007048e+01
 3.4701333e+00   3.2962854e+01
 3.4756000e+00   3.2832070e+01
 3.4810667e+00   3.2900845e+01
 3.4865333e+00   3.2734573e+01
 3.4920000e+00   3.2794056e+01
 3.4974667e+00   3.2736072e+01
 3.5029333e+00   3.2649981e+01
 3.5084000e+00   3.2647211e+01
 3.5138667e+00   3.2632921e+01
 3.5193333e+00   3.2602423e+01
 3.5248000e+00   3.2564225e+01
 3.5302667e+00   3.2605381e+01
 3.5357333e+00   3.2478130e+01
 3.5412000e+00   3.2541480e+01
 3.5466667e+00   3.2429139e+01
 3.5521333e+00   3.2529317e+01
 3.5576000e+00   3.2393014e+01
 3.5630667e+00   3.2523082e+01
 3.5685333e+00   3.2551376e+01
 3.5740000e+00   3.2711533e+01
 3.5794667e+00   3.2754068e+01
 3.5849333e+00   3.2663272e+01
 3.5904000e+00   3.2537459e+01
 3.5958667e+00   3.2442390e+01
 3.6013333e+00   3.2369316e+01
 3.6068000e+00   3.2183977e+01
 3.6122667e+00   3.2244269e+01
 3.6177333e+00   3.2000949e+01
 3.6232000e+00   3.2159165e+01
 3.6286667e+00   3.1826075e+01
 3.6341333e+00   3.1891833e+01
 3.6396000e+00   3.1729324e+01
 3.6450667e+00   3.1739936e+01
 3.6505333e+00   3.1664176e+01
 3.6560000e+00   3.1803795e+01
 3.6614667e+00   3.1587227e+01
 3.6669333e+00   3.1673382e+01
 3.6724000e+00   3.1542607e+01
 3.6778667e+00   3.1520759e+01
 3.6833333e+00   3.1554829e+01
 3.6888000e+00   3.1397783e+01
 3.6942667e+00   3.1578318e+01
 3.6997333e+00   3.1462428e+01
 3.7052000e+00   3.1427695e+01
 3.7106667e+00   3.1498741e+01
 3.7161333e+00   3.1458211e+01
 3.7216000e+00   3.1446074e+01
 3.7270667e+00   3.1390993e+01
 3.7325333e+00   3.1409344e+01
 3.7380000e+00   3.1380773e+01
 3.7434667e+00   3.1348036e+01
 3.7489333e+00   3.1341228e+01
 3.7544000e+00   3.1295612e+01
 3.7598667e+00   3.1309947e+01
 3.7653333e+00   3.1243913e+01
 3.7708000e+00   3.1277348e+01
 3.7762667e+00   3.1328369e+01
 3.7817333e+00   3.1288330e+01
 3.7872000e+00   3.1325723e+01
 3.7926667e+00   3.1205999e+01
 3.7981333e+00   3.1337351e+01
 3.8036000e+00   3.1282214e+01
 3.8090667e+00   3.1404926e+01
 3.8145333e+00   3.1261051e+01
 3.8200000e+00   3.1419118e+01
 3.8254667e+00   3.1362510e+01
 3.8309333e+00   3.1453278e+01
 3.8364000e+00   3.1282202e+01
 3.8418667e+00   3.1366393e+01
 3.8473333e+00   3.1332845e+01
 3.8528000e+00   3.1338965e+01
 3.8582667e+00   3.1510734e+01
 3.8637333e+00   3.1490844e+01
 3.8692000e+00   3.1915455e+01
 3.8746667e+00   3.1713764e+01
 3.8801333e+00   3.1637205e+01
 3.8856000e+00   3.1620187e+01
 3.8910667e+00   3.1654633e+01
 3.8965333e+00   3.1616498e+01
 3.9020000e+00   3.1752139e+01
 3.9074667e+00   3.1653822e+01
 3.9129333e+00   3.1739937e+01
 3.9184000e+00   3.1779913e+01
 3.9238667e+00   3.1935604e+01
 3.9293333e+00   3.2059949e+01
 3.9348000e+00   3.2212219e+01
 3.9402667e+00   3.2545989e+01
 3.9457333e+00   3.2722917e+01
 3.9512000e+00   3.2999237e+01
 3.9566667e+00   3.2840799e+01
 3.9621333e+00   3.2897687e+01
 3.9676000e+00   3.2735192e+01
 3.9730667e+00   3.2672280e+01
 3.9785333e+00   3.2554786e+01
 3.9840000e+00   3.2517812e+01
 3.9894667e+00   3.2456567e+01
 3.9949333e+00   3.2527705e+01
 4.0004000e+00   3.2325266e+01
 4.0058667e+00   3.2527162e+01
 4.0113333e+00   3.2469075e+01
 4.0168000e+00   3.2426118e+01
 4.0222667e+00   3.2441280e+01
 4.0277333e+00   3.2575988e+01
 4.0332000e+00   3.2464318e+01
 4.0386667e+00   3.2477062e+01
 4.0441333e+00   3.2791676e+01
 4.0496000e+00   3.2716593e+01
 4.0550667e+00   3.2971876e+01
 4.0605333e+00   3.3236201e+01
 4.0660000e+00   3.3250500e+01
 4.0714667e+00   3.3583768e+01
 4.0769333e+00   3.4036557e+01
 4.0824000e+00   3.4566534e+01
 4.0878667e+00   3.6062813e+01
 4.0933333e+00   3.7926763e+01
 4.0988000e+00   4.3111811e+01
 4.1042667e+00   4.9471486e+01
 4.1097333e+00   6.0529435e+01
 4.1152000e+00   8.0623685e+01
 4.1206667e+00   1.1255751e+02
 4.1261333e+00   1.5146688e+02
 4.1316000e+00   2.0375207e+02
 4.1370667e+00   2.2534193e+02
 4.1425333e+00   2.3880885e+02
 4.1480000e+00   2.2977720e+02
 4.1534667e+00   2.1529674e+02
 4.1589333e+00   2.0245325e+02
 4.1644000e+00   1.7399200e+02
 4.1698667e+00   1.9594330e+02
 4.1753333e+00   1.7762288e+02
 4.1808000e+00   1.3150032e+02
 4.1862667e+00   1.3102094e+02
 4.1917333e+00   9.8074723e+01
 4.1972000e+00   7.2360865e+01
 4.2026667e+00   5.3543240e+01
 4.2081333e+00   4.5045833e+01
 4.2136000e+00   3.9010135e+01
 4.2190667e+00   3.7027241e+01
 4.2245333e+00   3.5969368e+01
 4.2300000e+00   3.5280890e+01
 4.2354667e+00   3.5153051e+01
 4.2409333e+00   3.4970274e+01
 4.2464000e+00   3.4713196e+01
 4.2518667e+00   3.4620429e+01
 4.2573333e+00   3.4476593e+01
 4.2628000e+00   3.4335535e+01
 4.2682667e+00   3.4322031e+01
 4.2737333e+00   3.4222106e+01
 4.2792000e+00   3.4029227e+01
 4.2846667e+00   3.4048253e+01
 4.2901333e+00   3.3949476e+01
 4.2956000e+00   3.3963112e+01
 4.3010667e+00   3.3981071e+01
 4.3065333e+00   3.3861821e+01
 4.3120000e+00   3.3947446e+01
 4.3174667e+00   3.3833094e+01
 4.3229333e+00   3.3877317e+01
 4.3284000e+00   3.3594135e+01
 4.3338667e+00   3.3857725e+01
 4.3393333e+00   3.3660141e+01
 4.3448000e+00   3.3891508e+01
 4.3502667e+00   3.3631712e+01
 4.3557333e+00   3.3947279e+01
 4.3612000e+00   3.3697916e+01
 4.3666667e+00   3.4014031e+01
 4.3721333e+00   3.3968782e+01
 4.3776000e+00   3.4136577e+01
 4.3830667e+00   3.4148124e+01
 4.3885333e+00   3.4362572e+01
 4.3940000e+00   3.4528832e+01
 4.3994667e+00   3.4547186e+01
 4.4049333e+00   3.4927990e+01
 4.4104000e+00   3.4875948e+01
 4.4158667e+00   3.6054002e+01
 4.4213333e+00   3.6152496e+01
 4.4268000e+00   3.7827249e+01
 4.4322667e+00   3.8761222e+01
 4.4377333e+00   4.3411143e+01
 4.4432000e+00   5.0955896e+01
 4.4486667e+00   6.7023336e+01
 4.4541333e+00   8.7411684e+01
 4.4596000e+00   1.1087225e+02
 4.4650667e+00   1.3990201e+02
 4.4705333e+00   1.7883393e+02
 4.4760000e+00   2.2567101e+02
 4.4814667e+00   2.2049451e+02
 4.4869333e+00   2.7528217e+02
 4.4924000e+00   2.5597951e+02
 4.4978667e+00   2.9475603e+02
 4.5033333e+00   2.7806655e+02
 4.5088000e+00   4.1578513e+02
 4.5142667e+00   2.6094329e+02
 4.5197333e+00   3.7088473e+02
 4.5252000e+00   1.4118512e+02
 4.5306667e+00   2.6145138e+02
 4.5361333e+00   8.5049169e+01
 4.5416000e+00   1.2168494e+02
 4.5470667e+00   6.0748342e+01
 4.5525333e+00   6.7842015e+01
 4.5580000e+00   6.2588847e+01
 4.5634667e+00   6.9489801e+01
 4.5689333e+00   7.8482859e+01
 4.5744000e+00   9.0602957e+01
 4.5798667e+00   9.3492162e+01
 4.5853333e+00   1.0996254e+02
 4.5908000e+00   1.2038955e+02
 4.5962667e+00   1.1634184e+02
 4.6017333e+00   1.4439580e+02
 4.6072000e+00   1.3230835e+02
 4.6126667e+00   1.6442928e+02
 4.6181333e+00   1.2973251e+02
 4.6236000e+00   1.6693009e+02
 4.6290667e+00   1.1120467e+02
 4.6345333e+00   1.3841404e+02
 4.6400000e+00   9.0743684e+01
 4.6454667e+00   9.4496740e+01
 4.6509333e+00   7.9733071e+01
 4.6564000e+00   7.3963072e+01
 4.6618667e+00   7.9978038e+01
 4.6673333e+00   8.4722911e+01
 4.6728000e+00   1.2583027e+02
 4.6782667e+00   1.5594283e+02
 4.6837333e+00   2.6989426e+02
 4.6892000e+00   3.5273017e+02
 4.6946667e+00   4.9459760e+02
 4.7001333e+00   6.3359719e+02
 4.7056000e+00   7.4702654e+02
 4.7110667e+00   8.3880374e+02
 4.7165333e+00   1.0124125e+03
 4.7220000e+00   1.0256342e+03
 4.7274667e+00   1.1756553e+03
 4.7329333e+00   9.3405620e+02
 4.7384000e+00   9.6449116e+02
 4.7438667e+00   7.1874229e+02
 4.7493333e+00   5.2493412e+02
 4.7548000e+00   4.3147538e+02
 4.7602667e+00   2.1546480e+02
 4.7657333e+00   2.5043256e+02
 4.7712000e+00   1.1263426e+02
 4.7766667e+00   1.0381326e+02
 4.7821333e+00   5.7949690e+01
 4.7876000e+00   5.7434190e+01
 4.7930667e+00   4.5043284e+01
 4.7985333e+00   4.5416729e+01
 4.8040000e+00   4.1714933e+01
 4.8094667e+00   4.2041679e+01
 4.8149333e+00   4.0389783e+01
 4.8204000e+00   4.0813426e+01
 4.8258667e+00   3.9805680e+01
 4.8313333e+00   4.0070923e+01
 4.8368000e+00   4.0114701e+01
 4.8422667e+00   3.8963322e+01
 4.8477333e+00   4.0643273e+01
 4.8532000e+00   3.9082049e+01
 4.8586667e+00   4.0121930e+01
 4.8641333e+00   3.8664508e+01
 4.8696000e+00   3.9403128e+01
 4.8750667e+00   3.8458349e+01
 4.8805333e+00   3.8981183e+01
 4.8860000e+00   3.8768788e+01
 4.8914667e+00   3.8567913e+01
 4.8969333e+00   3.8870075e+01
 4.9024000e+00   3.8619657e+01
 4.9078667e+00   3.8637169e+01
 4.9133333e+00   3.9079133e+01
 4.9188000e+00   3.9607066e+01
 4.9242667e+00   3.8997305e+01
 4.9297333e+00   4.0260575e+01
 4.9352000e+00   3.9748691e+01
 4.9406667e+00   4.0313199e+01
 4.9461333e+00   4.0678861e+01
 4.9516000e+00   4.1165957e+01
 4.9570667e+00   4.1238885e+01
 4.9625333e+00   4.2980642e+01
 4.9680000e+00   4.3154372e+01
 4.9734667e+00   4.4379686e+01
 4.9789333e+00   4.5497852e+01
 4.9844000e+00   4.9801306e+01
 4.9898667e+00   5.1200446e+01
 4.9953333e+00   6.0743634e+01
 5.0008000e+00   6.9925672e+01
 5.0062667e+00   1.0604533e+02
 5.0117333e+00   1.1165919e+02
 5.0172000e+00   1.5128208e+02
 5.0226667e+00   1.7323170e+02
 5.0281333e+00   2.2418564e+02
 5.0336000e+00   3.0990034e+02
 5.0390667e+00   3.8660302e+02
 5.0445333e+00   4.4089332e+02
 5.0500000e+00   5.4510463e+02
 5.0554667e+00   5.2406837e+02
 5.0609333e+00   5.0325604e+02
 5.0664000e+00   4.9307590e+02
 5.0718667e+00   4.8373931e+02
 5.0773333e+00   4.2040888e+02
 5.0828000e+00   3.9328334e+02
 5.0882667e+00   3.4341898e+02
 5.0937333e+00   2.9741700e+02
 5.0992000e+00   2.2214180e+02
 5.1046667e+00   1.7273047e+02
 5.1101333e+00   1.5530258e+02
 5.1156000e+00   1.0753446e+02
 5.1210667e+00   7.8951211e+01
 5.1265333e+00   6.2152192e+01
 5.1320000e+00   5.2215279e+01
 5.1374667e+00   4.8453663e+01
 5.1429333e+00   4.6807961e+01
 5.1484000e+00   4.5632898e+01
 5.1538667e+00   4.5493793e+01
 5.1593333e+00   4.5118045e+01
 5.1648000e+00   4.5724671e+01
 5.1702667e+00   4.4782654e+01
 5.1757333e+00   4.5343359e+01
 5.1812000e+00   4.3964137e+01
 5.1866667e+00   4.3899806e+01
 5.1921333e+00   4.2599934e+01
 5.1976000e+00   4.1899826e+01
 5.2030667e+00   4.0513460e+01
 5.2085333e+00   3.9925562e+01
 5.2140000e+00   3.8606921e+01
 5.2194667e+00   3.7590448e+01
 5.2249333e+00   3.6926348e+01
 5.2304000e+00   3.6001466e+01
 5.2358667e+00   3.5305205e+01
 5.2413333e+00   3.5000158e+01
 5.2468000e+00   3.4681402e+01
 5.2522667e+00   3.4045709e+01
 5.2577333e+00   3.4150333e+01
 5.2632000e+00   3.3645946e+01
 5.2686667e+00   3.3607834e+01
 5.2741333e+00   3.3395581e+01
 5.2796000e+00   3.3261578e+01
 5.2850667e+00   3.3012953e+01
 5.2905333e+00   3.3040408e+01
 5.2960000e+00   3.2703586e+01
 5.3014667e+00   3.2655688e+01
 5.3069333e+00   3.2495837e+01
 5.3124000e+00   3.2408737e+01
 5.3178667e+00   3.2355631e+01
 5.3233333e+00   3.2380554e+01
 5.3288000e+00   3.2160548e+01
 5.3342667e+00   3.2163562e+01
 5.3397333e+00   3.2209860e+01
 5.3452000e+00   3.1997052e+01
 5.3506667e+00   3.2092915e+01
 5.3561333e+00   3.1946116e+01
 5.3616000e+00   3.1933238e+01
 5.3670667e+00   3.1730865e+01
 5.3725333e+00   3.1784898e+01
 5.3780000e+00   3.1591935e+01
 5.3834667e+00   3.1385685e+01
 5.3889333e+00   3.1424568e+01
 5.3944000e+00   3.1248962e+01
 5.3998667e+00   3.1164662e+01
 5.4053333e+00   3.1141720e+01
 5.4108000e+00   3.1092988e+01
 5.4162667e+00   3.0975673e+01
 5.4217333e+00   3.1223251e+01
 5.4272000e+00   3.0934293e+01
 5.4326667e+00   3.0915194e+01
 5.4381333e+00   3.0880938e+01
 5.4436000e+00   3.0839361e+01
 5.4490667e+00   3.0748609e+01
 5.4545333e+00   3.0819723e+01
 5.4600000e+00   3.0646448e+01
 5.4654667e+00   3.0688662e+01
 5.4709333e+00   3.0664458e+01
 5.4764000e+00   3.0618580e+01
 5.4818667e+00   3.0569199e+01
 5.4873333e+00   3.0587142e+01
 5.4928000e+00   3.0558177e+01
 5.4982667e+00   3.0548519e+01
 5.5037333e+00   3.0642836e+01
 5.5092000e+00   3.0402601e+01
 5.5146667e+00   3.0587731e+01
 5.5201333e+00   3.0339425e+01
 5.5256000e+00   3.0414277e+01
 5.5310667e+00   3.0324586e+01
 5.5365333e+00   3.0446394e+01
 5.5420000e+00   3.0361112e+01
 5.5474667e+00   3.0515768e+01
 5.5529333e+00   3.0457442e+01
 5.5584000e+00   3.0472248e+01
 5.5638667e+00   3.0516154e+01
 5.5693333e+00   3.0579072e+01
 5.5748000e+00   3.0581959e+01
 5.5802667e+00   3.0637746e+01
 5.5857333e+00   3.0804584e+01
 5.5912000e+00   3.0832632e+01
 5.5966667e+00   3.0920721e+01
 5.6021333e+00   3.0985609e+01
 5.6076000e+00   3.1027833e+01
 5.6130667e+00   3.0988789e+01
 5.6185333e+00   3.0992500e+01
 5.6240000e+00   3.0890353e+01
 5.6294667e+00   3.0864772e+01
 5.6349333e+00   3.0947164e+01
 5.6404000e+00   3.0836152e+01
 5.6458667e+00   3.0968311e+01
 5.6513333e+00   3.0993503e+01
 5.6568000e+00   3.1027575e+01
 5.6622667e+00   3.0984619e+01
 5.6677333e+00   3.1306673e+01
 5.6732000e+00   3.1175880e+01
 5.6786667e+00   3.1385655e+01
 5.6841333e+00   3.1350550e+01
 5.6896000e+00   3.1548096e+01
 5.6950667e+00   3.1608695e+01
 5.7005333e+00   3.1826157e+01
 5.7060000e+00   3.1853908e+01
 5.7114667e+00   3.2104046e+01
 5.7169333e+00   3.2133189e+01
 5.7224000e+00   3.2560640e+01
 5.7278667e+00   3.2524187e+01
 5.7333333e+00   3.3134554e+01
 5.7388000e+00   3.3124368e+01
 5.7442667e+00   3.3363232e+01
 5.7497333e+00   3.3820988e+01
 5.7552000e+00   3.4049689e+01
 5.7606667e+00   3.4915521e+01
 5.7661333e+00   3.5053405e+01
 5.7716000e+00   3.6721522e+01
 5.7770667e+00   3.7185068e+01
 5.7825333e+00   3.9710102e+01
 5.7880000e+00   4.3378541e+01
 5.7934667e+00   4.7816548e+01
 5.7989333e+00   6.2910065e+01
 5.8044000e+00   6.0950247e+01
 5.8098667e+00   8.4522409e+01
 5.8153333e+00   9.1202563e+01
 5.8208000e+00   1.2187479e+02
 5.8262667e+00   1.5101063e+02
 5.8317333e+00   2.1181301e+02
 5.8372000e+00   2.3594625e+02
 5.8426667e+00   2.5940879e+02
 5.8481333e+00   3.1025304e+02
 5.8536000e+00   2.5092352e+02
 5.8590667e+00   2.6922820e+02
 5.8645333e+00   2.6411403e+02
 5.8700000e+00   2.5214757e+02
 5.8754667e+00   1.6538390e+02
 5.8809333e+00   1.8753295e+02
 5.8864000e+00   1.4051920e+02
 5.8918667e+00   1.1198263e+02
 5.8973333e+00   8.0236552e+01
 5.9028000e+00   7.8908422e+01
 5.9082667e+00   5.5063989e+01
 5.9137333e+00   5.0442858e+01
 5.9192000e+00   4.0304692e+01
 5.9246667e+00   3.8505701e+01
 5.9301333e+00   3.5842089e+01
 5.9356000e+00   3.5249373e+01
 5.9410667e+00   3.3900858e+01
 5.9465333e+00   3.3993440e+01
 5.9520000e+00   3.3061323e+01
 5.9574667e+00   3.3147582e+01
 5.9629333e+00   3.2606562e+01
 5.9684000e+00   3.2882349e+01
 5.9738667e+00   3.2149552e+01
 5.9793333e+00   3.2463032e+01
 5.9848000e+00   3.2054201e+01
 5.9902667e+00   3.2101909e+01
 5.9957333e+00   3.1899526e+01
 6.0012000e+00   3.1868611e+01
 6.0066667e+00   3.1791517e+01
 6.0121333e+00   3.1595221e+01
 6.0176000e+00   3.1617871e+01
 6.0230667e+00   3.1468491e+01
 6.0285333e+00   3.1500573e+01
 6.0340000e+00   3.1594787e+01
 6.0394667e+00   3.1793177e+01
 6.0449333e+00   3.1828961e+01
 6.0504000e+00   3.2306207e+01
 6.0558667e+00   3.2674458e+01
 6.0613333e+00   3.3645684e+01
 6.0668000e+00   3.5236915e+01
 6.0722667e+00   3.8346684e+01
 6.0777333e+00   4.3593387e+01
 6.0832000e+00   5.3559558e+01
 6.0886667e+00   6.7913225e+01
 6.0941333e+00   8.6710327e+01
 6.0996000e+00   1.1710449e+02
 6.1050667e+00   1.4794480e+02
 6.1105333e+00   1.8340008e+02
 6.1160000e+00   2.1304162e+02
 6.1214667e+00   2.2312860e+02
 6.1269333e+00   2.1261076e+02
 6.1324000e+00   2.0411317e+02
 6.1378667e+00   1.7531208e+02
 6.1433333e+00   1.6127728e+02
 6.1488000e+00   1.1860225e+02
 6.1542667e+00   1.0149361e+02
 6.1597333e+00   6.7468808e+01
 6.1652000e+00   5.5137110e+01
 6.1706667e+00   4.2833624e+01
 6.1761333e+00   3.8197716e+01
 6.1816000e+00   3.3954312e+01
 6.1870667e+00   3.2570878e+01
 6.1925333e+00   3.1237442e+01
 6.1980000e+00   3.0773370e+01
 6.2034667e+00   3.0291230e+01
 6.2089333e+00   3.0210792e+01
 6.2144000e+00   3.0055401e+01
 6.2198667e+00   2.9974192e+01
 6.2253333e+00   2.9924674e+01
 6.2308000e+00   2.9682389e+01
 6.2362667e+00   2.9787914e+01
 6.2417333e+00   2.9610629e+01
 6.2472000e+00   2.9596347e+01
 6.2526667e+00   2.9467630e+01
 6.2581333e+00   2.9478644e+01
 6.2636000e+00   2.9280778e+01
 6.2690667e+00   2.9367828e+01
 6.2745333e+00   2.9158224e+01
 6.2800000e+00   2.9229093e+01
 6.2854667e+00   2.9148272e+01
 6.2909333e+00   2.9195962e+01
 6.2964000e+00   2.9027315e+01
 6.3018667e+00   2.9082299e+01
 6.3073333e+00   2.9011805e+01
 6.3128000e+00   2.8944532e+01
 6.3182667e+00   2.8989139e+01
 6.3237333e+00   2.8876235e+01
 6.3292000e+00   2.8868582e+01
 6.3346667e+00   2.8850594e+01
 6.3401333e+00   2.8849826e+01
 6.3456000e+00   2.8780181e+01
 6.3510667e+00   2.8897767e+01
 6.3565333e+00   2.8872874e+01
 6.3620000e+00   2.8986408e+01
 6.3674667e+00   2.8860815e+01
 6.3729333e+00   2.9099054e+01
 6.3784000e+00   2.9100762e+01
 6.3838667e+00   2.9016670e+01
 6.3893333e+00   2.9054716e+01
 6.3948000e+00   2.8957607e+01
 6.4002667e+00   2.8902266e+01
 6.4057333e+00   2.8966183e+01
 6.4112000e+00   2.8978636e+01
 6.4166667e+00   2.9491458e+01
 6.4221333e+00   2.9252712e+01
 6.4276000e+00   2.9196326e+01
 6.4330667e+00   2.9375443e+01
 6.4385333e+00   2.9393835e+01
 6.4440000e+00   2.9919505e+01
 6.4494667e+00   3.0262893e+01
 6.4549333e+00   3.0802085e+01
 6.4604000e+00   3.1170966e+01
 6.4658667e+00   3.2436807e+01
 6.4713333e+00   3.3057406e+01
 6.4768000e+00   3.4552033e+01
 6.4822667e+00   3.5775997e+01
 6.4877333e+00   3.7812965e+01
 6.4932000e+00   3.8673430e+01
 6.4986667e+00   4.1707737e+01
 6.5041333e+00   4.1141708e+01
 6.5096000e+00   4.2072899e+01
 6.5150667e+00   4.3218181e+01
 6.5205333e+00   4.1333703e+01
 6.5260000e+00   4.1453553e+01
 6.5314667e+00   4.0075283e+01
 6.5369333e+00   3.9082471e+01
 6.5424000e+00   3.6971018e+01
 6.5478667e+00   3.5948463e+01
 6.5533333e+00   3.4777824e+01
 6.5588000e+00   3.3714090e+01
 6.5642667e+00   3.2172758e+01
 6.5697333e+00   3.1498308e+01
 6.5752000e+00   3.0812093e+01
 6.5806667e+00   3.0437416e+01
 6.5861333e+00   2.9897691e+01
 6.5916000e+00   2.9768629e+01
 6.5970667e+00   2.9540105e+01
 6.6025333e+00   2.9293742e+01
 6.6080000e+00   2.9390397e+01
 6.6134667e+00   2.9053744e+01
 6.6189333e+00   2.9055744e+01
 6.6244000e+00   2.8969251e+01
 6.6298667e+00   2.8955107e+01
 6.6353333e+00   2.8787853e+01
 6.6408000e+00   2.8912381e+01
 6.6462667e+00   2.8790611e+01
 6.6517333e+00   2.8866023e+01
 6.6572000e+00   2.8770062e+01
 6.6626667e+00   2.8890204e+01
 6.6681333e+00   2.8849556e+01
 6.6736000e+00   2.8842448e+01
 6.6790667e+00   2.8783082e+01
 6.6845333e+00   2.8858043e+01
 6.6900000e+00   2.8823996e+01
 6.6954667e+00   2.8776943e+01
 6.7009333e+00   2.8778489e+01
 6.7064000e+00   2.8776970e+01
 6.7118667e+00   2.8806077e+01
 6.7173333e+00   2.8801086e+01
 6.7228000e+00   2.8890110e+01
 6.7282667e+00   2.8735882e+01
 6.7337333e+00   2.8919206e+01
 6.7392000e+00   2.8834583e+01
 6.7446667e+00   2.8969281e+01
 6.7501333e+00   2.8853026e+01
 6.7556000e+00   2.8970504e+01
 6.7610667e+00   2.8896997e+01
 6.7665333e+00   2.8979454e+01
 6.7720000e+00   2.8917406e+01
 6.7774667e+00   2.8993181e+01
 6.7829333e+00   2.9046471e+01
 6.7884000e+00   2.9089942e+01
 6.7938667e+00   2.9112426e+01
 6.7993333e+00   2.9091279e+01
 6.8048000e+00   2.9221493e+01
 6.8102667e+00   2.9213356e+01
 6.8157333e+00   2.9287788e+01
 6.8212000e+00   2.9862446e+01
 6.8266667e+00   2.9410612e+01
 6.8321333e+00   2.9324558e+01
 6.8376000e+00   2.9321481e+01
 6.8430667e+00   2.9227747e+01
 6.8485333e+00   2.9296068e+01
 6.8540000e+00   2.9200037e+01
 6.8594667e+00   2.9401780e+01
 6.8649333e+00   2.9307922e+01
 6.8704000e+00   2.9358894e+01
 6.8758667e+00   2.9355923e+01
 6.8813333e+00   2.9475861e+01
 6.8868000e+00   2.9358230e+01
 6.8922667e+00   2.9511164e+01
 6.8977333e+00   2.9502563e+01
 6.9032000e+00   2.9573331e+01
 6.9086667e+00   2.9620033e+01
 6.9141333e+00   2.9524309e+01
 6.9196000e+00   2.9667231e+01
 6.9250667e+00   2.9644355e+01
 6.9305333e+00   2.9716075e+01
 6.9360000e+00   2.9694514e+01
 6.9414667e+00   2.9818797e+01
 6.9469333e+00   2.9781113e+01
 6.9524000e+00   2.9969761e+01
 6.9578667e+00   2.9922747e+01
 6.9633333e+00   2.9994877e+01
 6.9688000e+00   3.0064793e+01
 6.9742667e+00   3.0098418e+01
 6.9797333e+00   3.0279416e+01
 6.9852000e+00   3.0400664e+01
 6.9906667e+00   3.0248446e+01
 6.9961333e+00   3.0329385e+01
 7.0016000e+00   3.0434854e+01
 7.0070667e+00   3.0380947e+01
 7.0125333e+00   3.0537635e+01
 7.0180000e+00   3.0468202e+01
 7.0234667e+00   3.0621408e+01
 7.0289333e+00   3.0537971e+01
 7.0344000e+00   3.0749220e+01
 7.0398667e+00   3.0775631e+01
 7.0453333e+00   3.0855518e+01
 7.0508000e+00   3.0929712e+01
 7.0562667e+00   3.1202107e+01
 7.0617333e+00   3.1048850e+01
 7.0672000e+00   3.1431243e+01
 7.0726667e+00   3.1342277e+01
 7.0781333e+00   3.1560992e+01
 7.0836000e+00   3.1539552e+01
 7.0890667e+00   3.1805405e+01
 7.0945333e+00   3.1798085e+01
 7.1000000e+00   3.2044176e+01
 7.1054667e+00   3.2416166e+01
 7.1109333e+00   3.2623467e+01
 7.1164000e+00   3.3202698e+01
 7.1218667e+00   3.3923928e+01
 7.1273333e+00   3.5051999e+01
 7.1328000e+00   3.6749377e+01
 7.1382667e+00   4.0844864e+01
 7.1437333e+00   4.6330805e+01
 7.1492000e+00   5.2226036e+01
 7.1546667e+00   6.9564138e+01
 7.1601333e+00   8.6608945e+01
 7.1656000e+00   1.0844241e+02
 7.1710667e+00   1.4552248e+02
 7.1765333e+00   1.7092496e+02
 7.1820000e+00   2.0549762e+02
 7.1874667e+00   2.3515446e+02
 7.1929333e+00   2.5994531e+02
 7.1984000e+00   2.3449717e+02
 7.2038667e+00   2.6095584e+02
 7.2093333e+00   1.9088462e+02
 7.2148000e+00   1.6894872e+02
 7.2202667e+00   1.2370873e+02
 7.2257333e+00   1.0288105e+02
 7.2312000e+00   8.1707737e+01
 7.2366667e+00   6.5446258e+01
 7.2421333e+00   5.3920529e+01
 7.2476000e+00   4.4830026e+01
 7.2530667e+00   3.9058616e+01
 7.2585333e+00   3.5872118e+01
 7.2640000e+00   3.4790007e+01
 7.2694667e+00   3.3450824e+01
 7.2749333e+00   3.3194757e+01
 7.2804000e+00   3.2762963e+01
 7.2858667e+00   3.2772569e+01
 7.2913333e+00   3.2542855e+01
 7.2968000e+00   3.2618583e+01
 7.3022667e+00   3.2415864e+01
 7.3077333e+00   3.2435319e+01
 7.3132000e+00   3.2377868e+01
 7.3186667e+00   3.2302742e+01
 7.3241333e+00   3.2308311e+01
 7.3296000e+00   3.2181823e+01
 7.3350667e+00   3.2235729e+01
 7.3405333e+00   3.2099704e+01
 7.3460000e+00   3.2117906e+01
 7.3514667e+00   3.1967638e+01
 7.3569333e+00   3.1953642e+01
 7.3624000e+00   3.1826585e+01
 7.3678667e+00   3.1873175e+01
 7.3733333e+00   3.1726332e+01
 7.3788000e+00   3.1736382e+01
 7.3842667e+00   3.1631355e+01
 7.3897333e+00   3.1584596e+01
 7.3952000e+00   3.1467770e+01
 7.4006667e+00   3.1513602e+01
 7.4061333e+00   3.1436265e+01
 7.4116000e+00   3.1287474e+01
 7.4170667e+00   3.1414675e+01
 7.4225333e+00   3.1281324e+01
 7.4280000e+00   3.1337570e+01
 7.4334667e+00   3.1237869e+01
 7.4389333e+00   3.1300760e+01
 7.4444000e+00   3.1186862e+01
 7.4498667e+00   3.1294085e+01
 7.4553333e+00   3.1226312e+01
 7.4608000e+00   3.1284040e+01
 7.4662667e+00   3.1180729e+01
 7.4717333e+00   3.1240676e+01
 7.4772000e+00   3.1140893e+01
 7.4826667e+00   3.1172692e+01
 7.4881333e+00   3.1175975e+01
 7.4936000e+00   3.1190539e+01
 7.4990667e+00   3.1225992e+01
 7.5045333e+00   3.1194287e+01
 7.5100000e+00   3.1257822e+01
 7.5154667e+00   3.1187791e+01
 7.5209333e+00   3.1283889e+01
 7.5264000e+00   3.1175322e+01
 7.5318667e+00   3.1382136e+01
 7.5373333e+00   3.1147043e+01
 7.5428000e+00   3.1331543e+01
 7.5482667e+00   3.1263258e+01
 7.5537333e+00   3.1446617e+01
 7.5592000e+00   3.1329402e+01
 7.5646667e+00   3.1430227e+01
 7.5701333e+00   3.1299588e+01
 7.5756000e+00   3.1369886e+01
 7.5810667e+00   3.1361376e+01
 7.5865333e+00   3.1454637e+01
 7.5920000e+00   3.1461892e+01
 7.5974667e+00   3.1509185e+01
 7.6029333e+00   3.1466215e+01
 7.6084000e+00   3.1438507e+01
 7.6138667e+00   3.1481230e+01
 7.6193333e+00   3.1561119e+01
 7.6248000e+00   3.1553056e+01
 7.6302667e+00   3.1644649e+01
 7.6357333e+00   3.1535060e+01
 7.6412000e+00   3.1499290e+01
 7.6466667e+00   3.1533520e+01
 7.6521333e+00   3.1515752e+01
 7.6576000e+00   3.1565222e+01
 7.6630667e+00   3.1473374e+01
 7.6685333e+00   3.1655212e+01
 7.6740000e+00   3.1548645e+01
 7.6794667e+00   3.1674278e+01
 7.6849333e+00   3.1683408e+01
 7.6904000e+00   3.1660868e+01
 7.6958667e+00   3.1719939e+01
 7.7013333e+00   3.1729203e+01
 7.7068000e+00   3.1795501e+01
 7.7122667e+00   3.1829868e+01
 7.7177333e+00   3.1962404e+01
 7.7232000e+00   3.1919713e+01
 7.7286667e+00   3.2048995e+01
 7.7341333e+00   3.2069968e+01
 7.7396000e+00   3.2228142e+01
 7.7450667e+00   3.1982741e+01
 7.7505333e+00   3.2211597e+01
 7.7560000e+00   3.2072153e+01
 7.7614667e+00   3.2286046e+01
 7.7669333e+00   3.2252430e+01
 7.7724000e+00   3.2424151e+01
 7.7778667e+00   3.2354260e+01
 7.7833333e+00   3.2610992e+01
 7.7888000e+00   3.2569472e+01
 7.7942667e+00   3.2701936e+01
 7.7997333e+00   3.2778696e+01
 7.8052000e+00   3.2968367e+01
 7.8106667e+00   3.3057215e+01
 7.8161333e+00   3.3312987e+01
 7.8216000e+00   3.3372848e+01
 7.8270667e+00   3.3630227e+01
 7.8325333e+00   3.3839938e+01
 7.8380000e+00   3.4019353e+01
 7.8434667e+00   3.4355650e+01
 7.8489333e+00   3.4709226e+01
 7.8544000e+00   3.5175611e+01
 7.8598667e+00   3.5653439e+01
 7.8653333e+00   3.6578402e+01
 7.8708000e+00   3.8101133e+01
 7.8762667e+00   4.0587892e+01
 7.8817333e+00   4.4147382e+01
 7.8872000e+00   5.3631688e+01
 7.8926667e+00   6.6388767e+01
 7.8981333e+00   8.2811011e+01
 7.9036000e+00   1.1171242e+02
 7.9090667e+00   1.4238132e+02
 7.9145333e+00   1.7883830e+02
 7.9200000e+00   2.2159211e+02
 7.9254667e+00   2.7056843e+02
 7.9309333e+00   3.0281994e+02
 7.9364000e+00   3.2782348e+02
 7.9418667e+00   3.1584635e+02
 7.9473333e+00   2.8481332e+02
 7.9528000e+00   2.2740008e+02
 7.9582667e+00   1.7563369e+02
 7.9637333e+00   1.3591195e+02
 7.9692000e+00   1.0491028e+02
 7.9746667e+00   8.4945797e+01
 7.9801333e+00   7.3738381e+01
 7.9856000e+00   6.4094294e+01
 7.9910667e+00   5.7363187e+01
 7.9965333e+00   5.6492213e+01
 8.0020000e+00   5.3066101e+01
 8.0074667e+00   4.9676445e+01
 8.0129333e+00   5.0364636e+01
 8.0184000e+00   4.6892159e+01
 8.0238667e+00   4.4433855e+01
 8.0293333e+00   4.4230091e+01
 8.0348000e+00   4.2118375e+01
 8.0402667e+00   3.9802039e+01
 8.0457333e+00   3.9486248e+01
 8.0512000e+00   3.8375971e+01
 8.0566667e+00   3.7163442e+01
 8.0621333e+00   3.6810229e+01
 8.0676000e+00   3.6218362e+01
 8.0730667e+00   3.5740616e+01
 8.0785333e+00   3.5420299e+01
 8.0840000e+00   3.5239299e+01
 8.0894667e+00   3.5018219e+01
 8.0949333e+00   3.4962935e+01
 8.1004000e+00   3.4793459e+01
 8.1058667e+00   3.4778436e+01
 8.1113333e+00   3.4736479e+01
 8.1168000e+00   3.4751566e+01
 8.1222667e+00   3.4760186e+01
 8.1277333e+00   3.4674011e+01
 8.1332000e+00   3.4884753e+01
 8.1386667e+00   3.4728238e+01
 8.1441333e+00   3.5022854e+01
 8.1496000e+00   3.4843200e+01
 8.1550667e+00   3.5119126e+01
 8.1605333e+00   3.4805960e+01
 8.1660000e+00   3.5275889e+01
 8.1714667e+00   3.4999325e+01
 8.1769333e+00   3.5393164e+01
 8.1824000e+00   3.5355636e+01
 8.1878667e+00   3.5705638e+01
 8.1933333e+00   3.5650928e+01
 8.1988000e+00   3.6077554e+01
 8.2042667e+00   3.6441525e+01
 8.2097333e+00   3.7039200e+01
 8.2152000e+00   3.8030477e+01
 8.2206667e+00   3.9020551e+01
 8.2261333e+00   4.2475387e+01
 8.2316000e+00   4.3874020e+01
 8.2370667e+00   6.2925911e+01
 8.2425333e+00   6.5708659e+01
 8.2480000e+00   8.3256123e+01
 8.2534667e+00   9.0113089e+01
 8.2589333e+00   1.0146869e+02
 8.2644000e+00   1.2392857e+02
 8.2698667e+00   1.2035523e+02
 8.2753333e+00   1.3029256e+02
 8.2808000e+00   1.5523126e+02
 8.2862667e+00   1.2318468e+02
 8.2917333e+00   1.1908098e+02
 8.2972000e+00   9.9325670e+01
 8.3026667e+00   9.6950360e+01
 8.3081333e+00   1.1062141e+02
 8.3136000e+00   1.2377116e+02
 8.3190667e+00   1.0611209e+02
 8.3245333e+00   9.3753022e+01
 8.3300000e+00   9.9464654e+01
 8.3354667e+00   6.3855131e+01
 8.3409333e+00   6.7553311e+01
 8.3464000e+00   4.5422179e+01
 8.3518667e+00   4.5716771e+01
 8.3573333e+00   3.9671412e+01
 8.3628000e+00   3.9267597e+01
 8.3682667e+00   3.7523572e+01
 8.3737333e+00   3.7590407e+01
 8.3792000e+00   3.7010084e+01
 8.3846667e+00   3.7256786e+01
 8.3901333e+00   3.6980049e+01
 8.3956000e+00   3.7416817e+01
 8.4010667e+00   3.7279567e+01
 8.4065333e+00   3.7834175e+01
 8.4120000e+00   3.8017161e+01
 8.4174667e+00   3.8987987e+01
 8.4229333e+00   3.9796822e+01
 8.4284000e+00   4.2097696e+01
 8.4338667e+00   4.5339238e+01
 8.4393333e+00   5.2596321e+01
 8.4448000e+00   6.1549166e+01
 8.4502667e+00   8.0130990e+01
 8.4557333e+00   9.7548134e+01
 8.4612000e+00   1.2549386e+02
 8.4666667e+00   1.5564622e+02
 8.4721333e+00   1.7895383e+02
 8.4776000e+00   1.9904506e+02
 8.4830667e+00   2.1804309e+02
 8.4885333e+00   2.1642911e+02
 8.4940000e+00   2.1873854e+02
 8.4994667e+00   2.0749491e+02
 8.5049333e+00   1.8821972e+02
 8.5104000e+00   1.6477201e+02
 8.5158667e+00   1.3596518e+02
 8.5213333e+00   1.1132926e+02
 8.5268000e+00   8.5672886e+01
 8.5322667e+00   7.1592492e+01
 8.5377333e+00   5.7134035e+01
 8.5432000e+00   5.1176651e+01
 8.5486667e+00   4.6052494e+01
 8.5541333e+00   4.5427726e+01
 8.5596000e+00   4.6634666e+01
 8.5650667e+00   5.0991966e+01
 8.5705333e+00   5.7744674e+01
 8.5760000e+00   6.9374220e+01
 8.5814667e+00   8.3494636e+01
 8.5869333e+00   1.0209248e+02
 8.5924000e+00   1.1935445e+02
 8.5978667e+00   1.3618489e+02
 8.6033333e+00   1.4876636e+02
 8.6088000e+00   1.5120512e+02
 8.6142667e+00   1.5138028e+02
 8.6197333e+00   1.4730041e+02
 8.6252000e+00   1.3437930e+02
 8.6306667e+00   1.2437714e+02
 8.6361333e+00   1.0151916e+02
 8.6416000e+00   8.4927635e+01
 8.6470667e+00   6.7617384e+01
 8.6525333e+00   5.6049440e+01
 8.6580000e+00   4.7918381e+01
 8.6634667e+00   4.2715390e+01
 8.6689333e+00   3.9571306e+01
 8.6744000e+00   3.7467589e+01
 8.6798667e+00   3.6237694e+01
 8.6853333e+00   3.5613130e+01
 8.6908000e+00   3.5053558e+01
 8.6962667e+00   3.4828980e+01
 8.7017333e+00   3.4502970e+01
 8.7072000e+00   3.4685717e+01
 8.7126667e+00   3.4181445e+01
 8.7181333e+00   3.4561394e+01
 8.7236000e+00   3.4070900e+01
 8.7290667e+00   3.4359213e+01
 8.7345333e+00   3.3914425e+01
 8.7400000e+00   3.3802948e+01
 8.7454667e+00   3.3407540e+01
 8.7509333e+00   3.3605235e+01
 8.7564000e+00   3.3215450e+01
 8.7618667e+00   3.3349235e+01
 8.7673333e+00   3.3157680e+01
 8.7728000e+00   3.3175233e+01
 8.7782667e+00   3.2930914e+01
 8.7837333e+00   3.2985964e+01
 8.7892000e+00   3.2803980e+01
 8.7946667e+00   3.2786409e+01
 8.8001333e+00   3.2778570e+01
 8.8056000e+00   3.2673944e+01
 8.8110667e+00   3.2610267e+01
 8.8165333e+00   3.2675462e+01
 8.8220000e+00   3.2703011e+01
 8.8274667e+00   3.2864384e+01
 8.8329333e+00   3.2934186e+01
 8.8384000e+00   3.2217331e+01
 8.8438667e+00   3.2378183e+01
 8.8493333e+00   3.2007922e+01
 8.8548000e+00   3.2128044e+01
 8.8602667e+00   3.1800610e+01
 8.8657333e+00   3.1949182e+01
 8.8712000e+00   3.1693024e+01
 8.8766667e+00   3.1800457e+01
 8.8821333e+00   3.1627714e+01
 8.8876000e+00   3.1774241e+01
 8.8930667e+00   3.1591599e+01
 8.8985333e+00   3.1830995e+01
 8.9040000e+00   3.1795767e+01
 8.9094667e+00   3.1804343e+01
 8.9149333e+00   3.1819698e+01
 8.9204000e+00   3.1908916e+01
 8.9258667e+00   3.2207507e+01
 8.9313333e+00   3.1814060e+01
 8.9368000e+00   3.1982793e+01
 8.9422667e+00   3.2103090e+01
 8.9477333e+00   3.2286590e+01
 8.9532000e+00   3.2649117e+01
 8.9586667e+00   3.3125317e+01
 8.9641333e+00   3.3637329e+01
 8.9696000e+00   3.5984472e+01
 8.9750667e+00   3.8301082e+01
 8.9805333e+00   4.0393965e+01
 8.9860000e+00   4.5031245e+01
 8.9914667e+00   4.7375898e+01
 8.9969333e+00   4.5853168e+01
 9.0024000e+00   5.2707206e+01
 9.0078667e+00   5.1960483e+01
 9.0133333e+00   4.7342170e+01
 9.0188000e+00   5.0671112e+01
 9.0242667e+00   4.9246102e+01
 9.0297333e+00   4.9407337e+01
 9.0352000e+00   4.8210556e+01
 9.0406667e+00   4.3995038e+01
 9.0461333e+00   3.8867081e+01
 9.0516000e+00   3.5132951e+01
 9.0570667e+00   3.2502679e+01
 9.0625333e+00   3.1382760e+01
 9.0680000e+00   3.0304483e+01
 9.0734667e+00   3.0074893e+01
 9.0789333e+00   2.9498247e+01
 9.0844000e+00   2.9589855e+01
 9.0898667e+00   2.9217918e+01
 9.0953333e+00   2.9315764e+01
 9.1008000e+00   2.9075753e+01
 9.1062667e+00   2.9214561e+01
 9.1117333e+00   2.8928134e+01
 9.1172000e+00   2.9077275e+01
 9.1226667e+00   2.8906263e+01
 9.1281333e+00   2.8926839e+01
 9.1336000e+00   2.8860644e+01
 9.1390667e+00   2.8899341e+01
 9.1445333e+00   2.8828912e+01
 9.1500000e+00   2.8812635e+01
 9.1554667e+00   2.8858754e+01
 9.1609333e+00   2.8870991e+01
 9.1664000e+00   2.8925180e+01
 9.1718667e+00   2.9234222e+01
 9.1773333e+00   2.9429477e+01
 9.1828000e+00   2.9514440e+01
 9.1882667e+00   3.0210933e+01
 9.1937333e+00   3.0162588e+01
 9.1992000e+00   3.0440807e+01
 9.2046667e+00   3.0850493e+01
 9.2101333e+00   3.1242489e+01
 9.2156000e+00   3.0725189e+01
 9.2210667e+00   3.1593524e+01
 9.2265333e+00   3.1144467e+01
 9.2320000e+00   3.1072257e+01
 9.2374667e+00   3.0969504e+01
 9.2429333e+00   3.1002891e+01
 9.2484000e+00   3.0316930e+01
 9.2538667e+00   3.0328576e+01
 9.2593333e+00   2.9906643e+01
 9.2648000e+00   2.9633372e+01
 9.2702667e+00   2.9380638e+01
 9.2757333e+00   2.9135105e+01
 9.2812000e+00   2.8861551e+01
 9.2866667e+00   2.8625332e+01
 9.2921333e+00   2.8441593e+01
 9.2976000e+00   2.8138342e+01
 9.3030667e+00   2.7934830e+01
 9.3085333e+00   2.7862996e+01
 9.3140000e+00   2.7757805e+01
 9.3194667e+00   2.7587651e+01
 9.3249333e+00   2.7634574e+01
 9.3304000e+00   2.7574688e+01
 9.3358667e+00   2.7356003e+01
 9.3413333e+00   2.7301173e+01
 9.3468000e+00   2.7299527e+01
 9.3522667e+00   2.7205478e+01
 9.3577333e+00   2.7338054e+01
 9.3632000e+00   2.7204008e+01
 9.3686667e+00   2.7352984e+01
 9.3741333e+00   2.7276980e+01
 9.3796000e+00   2.7388569e+01
 9.3850667e+00   2.7451454e+01
 9.3905333e+00   2.7648571e+01
 9.3960000e+00   2.8155394e+01
 9.4014667e+00   2.8840559e+01
 9.4069333e+00   2.9901676e+01
 9.4124000e+00   3.1693228e+01
 9.4178667e+00   3.3828131e+01
 9.4233333e+00   3.7049356e+01
 9.4288000e+00   4.0334605e+01
 9.4342667e+00   4.3125489e+01
 9.4397333e+00   4.6220240e+01
 9.4452000e+00   4.7716755e+01
 9.4506667e+00   4.8523512e+01
 9.4561333e+00   4.9527961e+01
 9.4616000e+00   4.9222837e+01
 9.4670667e+00   4.8772893e+01
 9.4725333e+00   4.7239482e+01
 9.4780000e+00   4.5144392e+01
 9.4834667e+00   4.1754887e+01
 9.4889333e+00   3.8625176e+01
 9.4944000e+00   3.5121358e+01
 9.4998667e+00   3.3165498e+01
 9.5053333e+00   3.0358688e+01
 9.5108000e+00   2.9558577e+01
 9.5162667e+00   2.8120013e+01
 9.5217333e+00   2.7749776e+01
 9.5272000e+00   2.7389107e+01
 9.5326667e+00   2.7254327e+01
 9.5381333e+00   2.7237677e+01
 9.5436000e+00   2.7215617e+01
 9.5490667e+00   2.7164514e+01
 9.5545333e+00   2.7271285e+01
 9.5600000e+00   2.7253440e+01
 9.5654667e+00   2.7398104e+01
 9.5709333e+00   2.7432177e+01
 9.5764000e+00   2.7647133e+01
 9.5818667e+00   2.7451063e+01
 9.5873333e+00   2.7679301e+01
 9.5928000e+00   2.7648281e+01
 9.5982667e+00   2.7841089e+01
 9.6037333e+00   2.7822328e+01
 9.6092000e+00   2.7978492e+01
 9.6146667e+00   2.8090310e+01
 9.6201333e+00   2.8343247e+01
 9.6256000e+00   2.8581287e+01
 9.6310667e+00   2.9204233e+01
 9.6365333e+00   2.9456008e+01
 9.6420000e+00   3.0759822e+01
 9.6474667e+00   3.3733484e+01
 9.6529333e+00   3.7432739e+01
 9.6584000e+00   4.4549399e+01
 9.6638667e+00   6.3187849e+01
 9.6693333e+00   6.2990895e+01
 9.6748000e+00   8.9440291e+01
 9.6802667e+00   9.7581042e+01
 9.6857333e+00   1.0296914e+02
 9.6912000e+00   1.3983361e+02
 9.6966667e+00   1.6779151e+02
 9.7021333e+00   1.6047246e+02
 9.7076000e+00   1.8921693e+02
 9.7130667e+00   1.9671673e+02
 9.7185333e+00   1.9106975e+02
 9.7240000e+00   2.1691834e+02
 9.7294667e+00   1.9147663e+02
 9.7349333e+00   2.3934934e+02
 9.7404000e+00   1.6325969e+02
 9.7458667e+00   1.8662947e+02
 9.7513333e+00   1.2540035e+02
 9.7568000e+00   1.2507098e+02
 9.7622667e+00   7.1556340e+01
 9.7677333e+00   7.2669629e+01
 9.7732000e+00   4.6790832e+01
 9.7786667e+00   4.0319093e+01
 9.7841333e+00   3.5329785e+01
 9.7896000e+00   3.1508589e+01
 9.7950667e+00   3.0119174e+01
 9.8005333e+00   2.9129921e+01
 9.8060000e+00   2.8714994e+01
 9.8114667e+00   2.8221315e+01
 9.8169333e+00   2.7952608e+01
 9.8224000e+00   2.7849334e+01
 9.8278667e+00   2.7592077e+01
 9.8333333e+00   2.7416551e+01
 9.8388000e+00   2.7260574e+01
 9.8442667e+00   2.7137421e+01
 9.8497333e+00   2.7101747e+01
 9.8552000e+00   2.6967099e+01
 9.8606667e+00   2.7079321e+01
 9.8661333e+00   2.7054835e+01
 9.8716000e+00   2.7302939e+01
 9.8770667e+00   2.7656144e+01
 9.8825333e+00   2.8498456e+01
 9.8880000e+00   2.9707786e+01
 9.8934667e+00   3.1842440e+01
 9.8989333e+00   3.4513515e+01
 9.9044000e+00   3.8160668e+01
 9.9098667e+00   4.2431835e+01
 9.9153333e+00   4.7359245e+01
 9.9208000e+00   5.0833227e+01
 9.9262667e+00   5.2818126e+01
 9.9317333e+00   5.1979471e+01
 9.9372000e+00   4.9160703e+01
 9.9426667e+00   4.4755235e+01
 9.9481333e+00   4.0297391e+01
 9.9536000e+00   3.6596937e+01
 9.9590667e+00   3.3177929e+01
 9.9645333e+00   3.0744867e+01
 9.9700000e+00   2.8755382e+01
 9.9754667e+00   2.7494804e+01
 9.9809333e+00   2.6720204e+01
 9.9864000e+00   2.6246923e+01
 9.9918667e+00   2.5933385e+01
 9.9973333e+00   2.5811446e+01
 1.0002800e+01   2.5693484e+01
 1.0008267e+01   2.5558843e+01
 1.0013733e+01   2.5740901e+01
 1.0019200e+01   2.5692986e+01
 1.0024667e+01   2.6047397e+01
 1.0030133e+01   2.5728541e+01
 1.0035600e+01   2.7724190e+01
 1.0041067e+01   2.5958312e+01
 1.0046533e+01   2.5873582e+01
 1.0052000e+01   2.5789529e+01
 1.0057467e+01   2.5842386e+01
 1.0062933e+01   2.5707683e+01
 1.0068400e+01   2.5953653e+01
 1.0073867e+01   2.6162958e+01
 1.0079333e+01   2.6305082e+01
 1.0084800e+01   2.7166159e+01
 1.0090267e+01   2.8760776e+01
 1.0095733e+01   3.0601710e+01
 1.0101200e+01   3.6097862e+01
 1.0106667e+01   4.8435446e+01
 1.0112133e+01   3.8256462e+01
 1.0117600e+01   5.1091500e+01
 1.0123067e+01   7.0808462e+01
 1.0128533e+01   6.2817605e+01
 1.0134000e+01   8.5471333e+01
 1.0139467e+01   6.5559943e+01
 1.0144933e+01   6.8735628e+01
 1.0150400e+01   5.9904636e+01
 1.0155867e+01   6.2816425e+01
 1.0161333e+01   7.1048513e+01
 1.0166800e+01   5.6439097e+01
 1.0172267e+01   7.5188285e+01
 1.0177733e+01   5.3929498e+01
 1.0183200e+01   5.2541821e+01
 1.0188667e+01   4.3414745e+01
 1.0194133e+01   3.7543576e+01
 1.0199600e+01   3.4746996e+01
 1.0205067e+01   3.2667168e+01
 1.0210533e+01   2.8143237e+01
 1.0216000e+01   2.7167602e+01
 1.0221467e+01   2.6488226e+01
 1.0226933e+01   2.6061430e+01
 1.0232400e+01   2.6012154e+01
 1.0237867e+01   2.6014030e+01
 1.0243333e+01   2.6146153e+01
 1.0248800e+01   2.6130229e+01
 1.0254267e+01   2.6421113e+01
 1.0259733e+01   2.6656861e+01
 1.0265200e+01   2.6959380e+01
 1.0270667e+01   2.7316032e+01
 1.0276133e+01   2.7769271e+01
 1.0281600e+01   2.8016330e+01
 1.0287067e+01   2.8491788e+01
 1.0292533e+01   2.8901704e+01
 1.0298000e+01   2.9211213e+01
 1.0303467e+01   2.9551382e+01
 1.0308933e+01   2.9924934e+01
 1.0314400e+01   2.9921320e+01
 1.0319867e+01   3.0193472e+01
 1.0325333e+01   3.0069832e+01
 1.0330800e+01   3.0114206e+01
 1.0336267e+01   2.9839703e+01
 1.0341733e+01   2.9647186e+01
 1.0347200e+01   2.9271819e+01
 1.0352667e+01   2.8898057e+01
 1.0358133e+01   2.8663053e+01
 1.0363600e+01   2.8038817e+01
 1.0369067e+01   2.7958947e+01
 1.0374533e+01   2.7399375e+01
 1.0380000e+01   2.7305464e+01
 1.0385467e+01   2.6803447e+01
 1.0390933e+01   2.6617285e+01
 1.0396400e+01   2.6227807e+01
 1.0401867e+01   2.6004487e+01
 1.0407333e+01   2.5790874e+01
 1.0412800e+01   2.5600926e+01
 1.0418267e+01   2.5429040e+01
 1.0423733e+01   2.5320074e+01
 1.0429200e+01   2.5160092e+01
 1.0434667e+01   2.5090889e+01
 1.0440133e+01   2.4956919e+01
 1.0445600e+01   2.4960944e+01
 1.0451067e+01   2.4894624e+01
 1.0456533e+01   2.4911528e+01
 1.0462000e+01   2.4800711e+01
 1.0467467e+01   2.4812544e+01
 1.0472933e+01   2.4722594e+01
 1.0478400e+01   2.4834517e+01
 1.0483867e+01   2.4736618e+01
 1.0489333e+01   2.4762652e+01
 1.0494800e+01   2.4719105e+01
 1.0500267e+01   2.4743804e+01
 1.0505733e+01   2.4720083e+01
 1.0511200e+01   2.4728785e+01
 1.0516667e+01   2.4767096e+01
 1.0522133e+01   2.4818282e+01
 1.0527600e+01   2.4755245e+01
 1.0533067e+01   2.4902566e+01
 1.0538533e+01   2.4764118e+01
 1.0544000e+01   2.4740054e+01
 1.0549467e+01   2.4671915e+01
 1.0554933e+01   2.4707458e+01
 1.0560400e+01   2.4728242e+01
 1.0565867e+01   2.4735816e+01
 1.0571333e+01   2.4815443e+01
 1.0576800e+01   2.4776509e+01
 1.0582267e+01   2.4784006e+01
 1.0587733e+01   2.4909132e+01
 1.0593200e+01   2.4854749e+01
 1.0598667e+01   2.4861117e+01
 1.0604133e+01   2.4956392e+01
 1.0609600e+01   2.5073596e+01
 1.0615067e+01   2.5050731e+01
 1.0620533e+01   2.5159084e+01
 1.0626000e+01   2.5165803e+01
 1.0631467e+01   2.5219944e+01
 1.0636933e+01   2.5380765e+01
 1.0642400e+01   2.5523733e+01
 1.0647867e+01   2.5764987e+01
 1.0653333e+01   2.6194177e+01
 1.0658800e+01   2.6959397e+01
 1.0664267e+01   2.7967550e+01
 1.0669733e+01   3.0228218e+01
 1.0675200e+01   3.2742347e+01
 1.0680667e+01   3.7455510e+01
 1.0686133e+01   4.2867528e+01
 1.0691600e+01   4.9214401e+01
 1.0697067e+01   5.6019673e+01
 1.0702533e+01   6.1577131e+01
 1.0708000e+01   6.6773886e+01
 1.0713467e+01   6.9551953e+01
 1.0718933e+01   7.2516384e+01
 1.0724400e+01   7.2624308e+01
 1.0729867e+01   7.2476776e+01
 1.0735333e+01   6.9010466e+01
 1.0740800e+01   6.5107818e+01
 1.0746267e+01   5.8167399e+01
 1.0751733e+01   4.9944384e+01
 1.0757200e+01   4.2607599e+01
 1.0762667e+01   3.6615411e+01
 1.0768133e+01   3.2127799e+01
 1.0773600e+01   2.9385580e+01
 1.0779067e+01   2.7778299e+01
 1.0784533e+01   2.6607827e+01
 1.0790000e+01   2.6101932e+01
 1.0795467e+01   2.5687933e+01
 1.0800933e+01   2.5495398e+01
 1.0806400e+01   2.5382285e+01
 1.0811867e+01   2.5274042e+01
 1.0817333e+01   2.5244157e+01
 1.0822800e+01   2.5233923e+01
 1.0828267e+01   2.5174997e+01
 1.0833733e+01   2.5200857e+01
 1.0839200e+01   2.5099059e+01
 1.0844667e+01   2.5155313e+01
 1.0850133e+01   2.5134489e+01
 1.0855600e+01   2.5053717e+01
 1.0861067e+01   2.5145383e+01
 1.0866533e+01   2.5146026e+01
 1.0872000e+01   2.5143323e+01
 1.0877467e+01   2.5109155e+01
 1.0882933e+01   2.5175733e+01
 1.0888400e+01   2.5134507e+01
 1.0893867e+01   2.5123653e+01
 1.0899333e+01   2.5134188e+01
 1.0904800e+01   2.5094223e+01
 1.0910267e+01   2.5230294e+01
 1.0915733e+01   2.5201022e+01
 1.0921200e+01   2.5258506e+01
 1.0926667e+01   2.5385383e+01
 1.0932133e+01   2.5477930e+01
 1.0937600e+01   2.5654310e+01
 1.0943067e+01   2.5951293e+01
 1.0948533e+01   2.6452678e+01
 1.0954000e+01   2.7079663e+01
 1.0959467e+01   2.7874510e+01
 1.0964933e+01   2.9028547e+01
 1.0970400e+01   3.0258022e+01
 1.0975867e+01   3.1638620e+01
 1.0981333e+01   3.3710146e+01
 1.0986800e+01   3.5411783e+01
 1.0992267e+01   3.7129800e+01
 1.0997733e+01   3.8586887e+01
 1.1003200e+01   3.9424240e+01
 1.1008667e+01   3.9096539e+01
 1.1014133e+01   3.9012185e+01
 1.1019600e+01   3.7304709e+01
 1.1025067e+01   3.6421697e+01
 1.1030533e+01   3.4518278e+01
 1.1036000e+01   3.3116354e+01
 1.1041467e+01   3.1376423e+01
 1.1046933e+01   2.9945501e+01
 1.1052400e+01   2.8605128e+01
 1.1057867e+01   2.7615391e+01
 1.1063333e+01   2.6895670e+01
 1.1068800e+01   2.6431443e+01
 1.1074267e+01   2.6126342e+01
 1.1079733e+01   2.5858938e+01
 1.1085200e+01   2.5770007e+01
 1.1090667e+01   2.5732055e+01
 1.1096133e+01   2.5756693e+01
 1.1101600e+01   2.5739431e+01
 1.1107067e+01   2.5858459e+01
 1.1112533e+01   2.5821329e+01
 1.1118000e+01   2.6121228e+01
 1.1123467e+01   2.5962461e+01
 1.1128933e+01   2.6303494e+01
 1.1134400e+01   2.6417603e+01
 1.1139867e+01   2.7688683e+01
 1.1145333e+01   2.7148567e+01
 1.1150800e+01   2.8547725e+01
 1.1156267e+01   2.7857486e+01
 1.1161733e+01   2.7656908e+01
 1.1167200e+01   2.8338173e+01
 1.1172667e+01   2.9521951e+01
 1.1178133e+01   3.1376011e+01
 1.1183600e+01   3.4550270e+01
 1.1189067e+01   3.9439207e+01
 1.1194533e+01   4.4342069e+01
