PWDR ff_004434_sum_norm_dc_0.tif Azm= 352.fxye Bank 1
2-Theta Angle (Degrees)
Intensity
       1500
 3.0000000e+00   4.6791075e+01
 3.0054667e+00   4.6574178e+01
 3.0109333e+00   4.6366736e+01
 3.0164000e+00   4.6607086e+01
 3.0218667e+00   4.6087690e+01
 3.0273333e+00   4.6166968e+01
 3.0328000e+00   4.6007552e+01
 3.0382667e+00   4.5688300e+01
 3.0437333e+00   4.5486061e+01
 3.0492000e+00   4.5464803e+01
 3.0546667e+00   4.4957144e+01
 3.0601333e+00   4.4751616e+01
 3.0656000e+00   4.4641585e+01
 3.0710667e+00   4.4361936e+01
 3.0765333e+00   4.4189300e+01
 3.0820000e+00   4.4244103e+01
 3.0874667e+00   4.3827582e+01
 3.0929333e+00   4.3929093e+01
 3.0984000e+00   4.3572641e+01
 3.1038667e+00   4.3609274e+01
 3.1093333e+00   4.3399643e+01
 3.1148000e+00   4.3049506e+01
 3.1202667e+00   4.3118624e+01
 3.1257333e+00   4.2944295e+01
 3.1312000e+00   4.2630915e+01
 3.1366667e+00   4.2745462e+01
 3.1421333e+00   4.2625757e+01
 3.1476000e+00   4.2198041e+01
 3.1530667e+00   4.2257218e+01
 3.1585333e+00   4.1925694e+01
 3.1640000e+00   4.1787154e+01
 3.1694667e+00   4.1713387e+01
 3.1749333e+00   4.1664183e+01
 3.1804000e+00   4.1298073e+01
 3.1858667e+00   4.1522592e+01
 3.1913333e+00   4.1248572e+01
 3.1968000e+00   4.0865078e+01
 3.2022667e+00   4.1224199e+01
 3.2077333e+00   4.0775431e+01
 3.2132000e+00   4.0770188e+01
 3.2186667e+00   4.0512241e+01
 3.2241333e+00   4.0547873e+01
 3.2296000e+00   4.0147020e+01
 3.2350667e+00   4.0142831e+01
 3.2405333e+00   3.9941665e+01
 3.2460000e+00   3.9701874e+01
 3.2514667e+00   3.9581923e+01
 3.2569333e+00   3.9480911e+01
 3.2624000e+00   3.9476589e+01
 3.2678667e+00   3.9131826e+01
 3.2733333e+00   3.9332590e+01
 3.2788000e+00   3.9063867e+01
 3.2842667e+00   3.9072653e+01
 3.2897333e+00   3.9048108e+01
 3.2952000e+00   3.9035093e+01
 3.3006667e+00   3.8761169e+01
 3.3061333e+00   3.8912203e+01
 3.3116000e+00   3.8647797e+01
 3.3170667e+00   3.8686985e+01
 3.3225333e+00   3.8441699e+01
 3.3280000e+00   3.8611529e+01
 3.3334667e+00   3.8323849e+01
 3.3389333e+00   3.8559932e+01
 3.3444000e+00   3.8458115e+01
 3.3498667e+00   3.8265018e+01
 3.3553333e+00   3.8360001e+01
 3.3608000e+00   3.8357139e+01
 3.3662667e+00   3.8082182e+01
 3.3717333e+00   3.8260164e+01
 3.3772000e+00   3.8106976e+01
 3.3826667e+00   3.8036483e+01
 3.3881333e+00   3.8082484e+01
 3.3936000e+00   3.7981615e+01
 3.3990667e+00   3.8015908e+01
 3.4045333e+00   3.7734846e+01
 3.4100000e+00   3.8040816e+01
 3.4154667e+00   3.7689792e+01
 3.4209333e+00   3.7899959e+01
 3.4264000e+00   3.7654791e+01
 3.4318667e+00   3.7771770e+01
 3.4373333e+00   3.7668761e+01
 3.4428000e+00   3.7552979e+01
 3.4482667e+00   3.7560079e+01
 3.4537333e+00   3.7413914e+01
 3.4592000e+00   3.7463382e+01
 3.4646667e+00   3.7187444e+01
 3.4701333e+00   3.7284409e+01
 3.4756000e+00   3.7120848e+01
 3.4810667e+00   3.7265732e+01
 3.4865333e+00   3.6965429e+01
 3.4920000e+00   3.7091111e+01
 3.4974667e+00   3.7215899e+01
 3.5029333e+00   3.6829379e+01
 3.5084000e+00   3.7137900e+01
 3.5138667e+00   3.6863559e+01
 3.5193333e+00   3.6960742e+01
 3.5248000e+00   3.6949564e+01
 3.5302667e+00   3.7226462e+01
 3.5357333e+00   3.6951422e+01
 3.5412000e+00   3.7309289e+01
 3.5466667e+00   3.7124684e+01
 3.5521333e+00   3.7244799e+01
 3.5576000e+00   3.7294113e+01
 3.5630667e+00   3.7409436e+01
 3.5685333e+00   3.7100250e+01
 3.5740000e+00   3.7461891e+01
 3.5794667e+00   3.7188800e+01
 3.5849333e+00   3.7345829e+01
 3.5904000e+00   3.7280333e+01
 3.5958667e+00   3.7212578e+01
 3.6013333e+00   3.7250793e+01
 3.6068000e+00   3.7193217e+01
 3.6122667e+00   3.7252241e+01
 3.6177333e+00   3.7298412e+01
 3.6232000e+00   3.7370556e+01
 3.6286667e+00   3.7141507e+01
 3.6341333e+00   3.7418454e+01
 3.6396000e+00   3.7215059e+01
 3.6450667e+00   3.7311427e+01
 3.6505333e+00   3.7351509e+01
 3.6560000e+00   3.7384723e+01
 3.6614667e+00   3.7289072e+01
 3.6669333e+00   3.7696894e+01
 3.6724000e+00   3.7444662e+01
 3.6778667e+00   3.7631760e+01
 3.6833333e+00   3.7672230e+01
 3.6888000e+00   3.7526750e+01
 3.6942667e+00   3.7766392e+01
 3.6997333e+00   3.7586964e+01
 3.7052000e+00   3.7607248e+01
 3.7106667e+00   3.7652958e+01
 3.7161333e+00   3.7734564e+01
 3.7216000e+00   3.7521627e+01
 3.7270667e+00   3.7819305e+01
 3.7325333e+00   3.7580689e+01
 3.7380000e+00   3.7560457e+01
 3.7434667e+00   3.7744153e+01
 3.7489333e+00   3.7582500e+01
 3.7544000e+00   3.7643629e+01
 3.7598667e+00   3.7702011e+01
 3.7653333e+00   3.7692795e+01
 3.7708000e+00   3.7591863e+01
 3.7762667e+00   3.7894340e+01
 3.7817333e+00   3.7553737e+01
 3.7872000e+00   3.8037584e+01
 3.7926667e+00   3.7693398e+01
 3.7981333e+00   3.7938353e+01
 3.8036000e+00   3.7910236e+01
 3.8090667e+00   3.8044306e+01
 3.8145333e+00   3.7900058e+01
 3.8200000e+00   3.8189277e+01
 3.8254667e+00   3.8150330e+01
 3.8309333e+00   3.8324845e+01
 3.8364000e+00   3.8329762e+01
 3.8418667e+00   3.8328906e+01
 3.8473333e+00   3.8628433e+01
 3.8528000e+00   3.8612135e+01
 3.8582667e+00   3.8657317e+01
 3.8637333e+00   3.8970917e+01
 3.8692000e+00   3.9025618e+01
 3.8746667e+00   3.8909102e+01
 3.8801333e+00   3.9394934e+01
 3.8856000e+00   3.9392434e+01
 3.8910667e+00   3.9517468e+01
 3.8965333e+00   3.9896388e+01
 3.9020000e+00   4.0057451e+01
 3.9074667e+00   3.9908918e+01
 3.9129333e+00   4.0569442e+01
 3.9184000e+00   4.0463534e+01
 3.9238667e+00   4.0580683e+01
 3.9293333e+00   4.0810820e+01
 3.9348000e+00   4.0842080e+01
 3.9402667e+00   4.0746620e+01
 3.9457333e+00   4.0744897e+01
 3.9512000e+00   4.0897191e+01
 3.9566667e+00   4.0684311e+01
 3.9621333e+00   4.1064143e+01
 3.9676000e+00   4.0891005e+01
 3.9730667e+00   4.1281045e+01
 3.9785333e+00   4.0963630e+01
 3.9840000e+00   4.1246458e+01
 3.9894667e+00   4.1260724e+01
 3.9949333e+00   4.1399442e+01
 4.0004000e+00   4.1411197e+01
 4.0058667e+00   4.1980801e+01
 4.0113333e+00   4.1643037e+01
 4.0168000e+00   4.2024419e+01
 4.0222667e+00   4.2502508e+01
 4.0277333e+00   4.2501621e+01
 4.0332000e+00   4.3118275e+01
 4.0386667e+00   4.3486321e+01
 4.0441333e+00   4.4179211e+01
 4.0496000e+00   4.4971616e+01
 4.0550667e+00   4.7201287e+01
 4.0605333e+00   4.9636795e+01
 4.0660000e+00   5.6498908e+01
 4.0714667e+00   6.5252841e+01
 4.0769333e+00   7.9165557e+01
 4.0824000e+00   9.5917270e+01
 4.0878667e+00   1.2333251e+02
 4.0933333e+00   1.4755412e+02
 4.0988000e+00   1.8225876e+02
 4.1042667e+00   2.0321512e+02
 4.1097333e+00   2.2035270e+02
 4.1152000e+00   2.2648374e+02
 4.1206667e+00   2.1500529e+02
 4.1261333e+00   1.9845227e+02
 4.1316000e+00   1.7244719e+02
 4.1370667e+00   1.4468370e+02
 4.1425333e+00   1.1654315e+02
 4.1480000e+00   9.3889803e+01
 4.1534667e+00   7.8616762e+01
 4.1589333e+00   6.5907176e+01
 4.1644000e+00   5.7444488e+01
 4.1698667e+00   5.3182374e+01
 4.1753333e+00   5.0157267e+01
 4.1808000e+00   4.9057993e+01
 4.1862667e+00   4.8304509e+01
 4.1917333e+00   4.7948994e+01
 4.1972000e+00   4.7547522e+01
 4.2026667e+00   4.7671061e+01
 4.2081333e+00   4.7573444e+01
 4.2136000e+00   4.7081919e+01
 4.2190667e+00   4.7497972e+01
 4.2245333e+00   4.7199476e+01
 4.2300000e+00   4.7053747e+01
 4.2354667e+00   4.7019791e+01
 4.2409333e+00   4.7221779e+01
 4.2464000e+00   4.6926032e+01
 4.2518667e+00   4.7448881e+01
 4.2573333e+00   4.7324791e+01
 4.2628000e+00   4.7203299e+01
 4.2682667e+00   4.7622878e+01
 4.2737333e+00   4.7235206e+01
 4.2792000e+00   4.7510604e+01
 4.2846667e+00   4.7594203e+01
 4.2901333e+00   4.7733715e+01
 4.2956000e+00   4.7620591e+01
 4.3010667e+00   4.8218371e+01
 4.3065333e+00   4.7713539e+01
 4.3120000e+00   4.8411265e+01
 4.3174667e+00   4.8175155e+01
 4.3229333e+00   4.8658921e+01
 4.3284000e+00   4.8493944e+01
 4.3338667e+00   4.9064903e+01
 4.3393333e+00   4.8949675e+01
 4.3448000e+00   4.9542676e+01
 4.3502667e+00   4.9451397e+01
 4.3557333e+00   4.9824629e+01
 4.3612000e+00   5.0193489e+01
 4.3666667e+00   5.0655916e+01
 4.3721333e+00   5.1038822e+01
 4.3776000e+00   5.2172388e+01
 4.3830667e+00   5.2010487e+01
 4.3885333e+00   5.2543834e+01
 4.3940000e+00   5.4458755e+01
 4.3994667e+00   5.5810705e+01
 4.4049333e+00   6.0444561e+01
 4.4104000e+00   6.7299292e+01
 4.4158667e+00   7.9646386e+01
 4.4213333e+00   9.7629301e+01
 4.4268000e+00   1.2298653e+02
 4.4322667e+00   1.5695650e+02
 4.4377333e+00   1.9605601e+02
 4.4432000e+00   2.3455582e+02
 4.4486667e+00   2.7281145e+02
 4.4541333e+00   3.0272044e+02
 4.4596000e+00   3.0978049e+02
 4.4650667e+00   2.9172477e+02
 4.4705333e+00   2.5959155e+02
 4.4760000e+00   2.1858632e+02
 4.4814667e+00   1.8321240e+02
 4.4869333e+00   1.5446028e+02
 4.4924000e+00   1.4238691e+02
 4.4978667e+00   1.4911453e+02
 4.5033333e+00   1.6075199e+02
 4.5088000e+00   1.9006609e+02
 4.5142667e+00   2.2406777e+02
 4.5197333e+00   2.6113290e+02
 4.5252000e+00   2.9612362e+02
 4.5306667e+00   3.2888176e+02
 4.5361333e+00   3.4226929e+02
 4.5416000e+00   3.3524511e+02
 4.5470667e+00   3.0204389e+02
 4.5525333e+00   2.6495755e+02
 4.5580000e+00   2.1621636e+02
 4.5634667e+00   1.7984435e+02
 4.5689333e+00   1.4328098e+02
 4.5744000e+00   1.2217604e+02
 4.5798667e+00   1.0235876e+02
 4.5853333e+00   8.7672619e+01
 4.5908000e+00   8.1268994e+01
 4.5962667e+00   7.4138860e+01
 4.6017333e+00   7.2538374e+01
 4.6072000e+00   7.2274674e+01
 4.6126667e+00   7.4510157e+01
 4.6181333e+00   7.9549310e+01
 4.6236000e+00   8.9931756e+01
 4.6290667e+00   1.1080027e+02
 4.6345333e+00   1.4851868e+02
 4.6400000e+00   2.0134091e+02
 4.6454667e+00   2.7995391e+02
 4.6509333e+00   3.7606852e+02
 4.6564000e+00   4.9335570e+02
 4.6618667e+00   6.0043148e+02
 4.6673333e+00   7.0142661e+02
 4.6728000e+00   7.7116670e+02
 4.6782667e+00   8.2804512e+02
 4.6837333e+00   8.0850016e+02
 4.6892000e+00   7.5983072e+02
 4.6946667e+00   6.5126330e+02
 4.7001333e+00   5.5742895e+02
 4.7056000e+00   4.3805135e+02
 4.7110667e+00   3.3391430e+02
 4.7165333e+00   2.5001777e+02
 4.7220000e+00   1.8140834e+02
 4.7274667e+00   1.2924201e+02
 4.7329333e+00   9.9706714e+01
 4.7384000e+00   8.1147228e+01
 4.7438667e+00   7.3159048e+01
 4.7493333e+00   6.7609836e+01
 4.7548000e+00   6.6234744e+01
 4.7602667e+00   6.2799273e+01
 4.7657333e+00   6.3125678e+01
 4.7712000e+00   6.1001959e+01
 4.7766667e+00   6.0683240e+01
 4.7821333e+00   5.9579192e+01
 4.7876000e+00   5.9694827e+01
 4.7930667e+00   5.8998360e+01
 4.7985333e+00   5.8745607e+01
 4.8040000e+00   5.9317383e+01
 4.8094667e+00   5.7594016e+01
 4.8149333e+00   5.9835118e+01
 4.8204000e+00   5.7784015e+01
 4.8258667e+00   5.9607568e+01
 4.8313333e+00   5.8237000e+01
 4.8368000e+00   5.9886607e+01
 4.8422667e+00   5.8153213e+01
 4.8477333e+00   6.0082152e+01
 4.8532000e+00   5.8891960e+01
 4.8586667e+00   6.0113799e+01
 4.8641333e+00   5.9860858e+01
 4.8696000e+00   6.0727720e+01
 4.8750667e+00   6.1012543e+01
 4.8805333e+00   6.0890481e+01
 4.8860000e+00   6.2853508e+01
 4.8914667e+00   6.1185543e+01
 4.8969333e+00   6.5090560e+01
 4.9024000e+00   6.3143158e+01
 4.9078667e+00   6.7296010e+01
 4.9133333e+00   6.5863735e+01
 4.9188000e+00   7.2276498e+01
 4.9242667e+00   7.0272889e+01
 4.9297333e+00   8.0958093e+01
 4.9352000e+00   8.6498903e+01
 4.9406667e+00   1.1317387e+02
 4.9461333e+00   1.2331337e+02
 4.9516000e+00   1.8159032e+02
 4.9570667e+00   2.0277992e+02
 4.9625333e+00   2.8838924e+02
 4.9680000e+00   3.0390504e+02
 4.9734667e+00   4.2598295e+02
 4.9789333e+00   4.1031774e+02
 4.9844000e+00   4.3528168e+02
 4.9898667e+00   4.5153422e+02
 4.9953333e+00   4.1015504e+02
 5.0008000e+00   4.5590841e+02
 5.0062667e+00   3.2091452e+02
 5.0117333e+00   3.8478547e+02
 5.0172000e+00   2.8508308e+02
 5.0226667e+00   2.3954770e+02
 5.0281333e+00   2.3475799e+02
 5.0336000e+00   1.3181263e+02
 5.0390667e+00   1.3109572e+02
 5.0445333e+00   8.5095096e+01
 5.0500000e+00   8.6286119e+01
 5.0554667e+00   7.0544651e+01
 5.0609333e+00   7.3861946e+01
 5.0664000e+00   6.4366771e+01
 5.0718667e+00   6.8886025e+01
 5.0773333e+00   6.1311918e+01
 5.0828000e+00   6.5001531e+01
 5.0882667e+00   5.9578349e+01
 5.0937333e+00   6.2243574e+01
 5.0992000e+00   5.8474349e+01
 5.1046667e+00   5.9546132e+01
 5.1101333e+00   5.7642899e+01
 5.1156000e+00   5.7451740e+01
 5.1210667e+00   5.6296535e+01
 5.1265333e+00   5.6048812e+01
 5.1320000e+00   5.4976308e+01
 5.1374667e+00   5.4727054e+01
 5.1429333e+00   5.4177331e+01
 5.1484000e+00   5.3057542e+01
 5.1538667e+00   5.3584755e+01
 5.1593333e+00   5.1531788e+01
 5.1648000e+00   5.3283810e+01
 5.1702667e+00   5.0618514e+01
 5.1757333e+00   5.2700844e+01
 5.1812000e+00   5.0161205e+01
 5.1866667e+00   5.1605909e+01
 5.1921333e+00   5.0036881e+01
 5.1976000e+00   5.0911827e+01
 5.2030667e+00   4.9373126e+01
 5.2085333e+00   5.0261512e+01
 5.2140000e+00   4.8712959e+01
 5.2194667e+00   4.9469266e+01
 5.2249333e+00   4.8658229e+01
 5.2304000e+00   4.8614002e+01
 5.2358667e+00   4.8197346e+01
 5.2413333e+00   4.8126156e+01
 5.2468000e+00   4.7980592e+01
 5.2522667e+00   4.7037889e+01
 5.2577333e+00   4.8201790e+01
 5.2632000e+00   4.6829925e+01
 5.2686667e+00   4.7663257e+01
 5.2741333e+00   4.6652099e+01
 5.2796000e+00   4.7113961e+01
 5.2850667e+00   4.6369017e+01
 5.2905333e+00   4.6843101e+01
 5.2960000e+00   4.6140214e+01
 5.3014667e+00   4.6285841e+01
 5.3069333e+00   4.6085325e+01
 5.3124000e+00   4.6021516e+01
 5.3178667e+00   4.5694784e+01
 5.3233333e+00   4.5904157e+01
 5.3288000e+00   4.5369956e+01
 5.3342667e+00   4.5374334e+01
 5.3397333e+00   4.5434201e+01
 5.3452000e+00   4.4966911e+01
 5.3506667e+00   4.5660195e+01
 5.3561333e+00   4.5273656e+01
 5.3616000e+00   4.5946641e+01
 5.3670667e+00   4.6823909e+01
 5.3725333e+00   4.7899085e+01
 5.3780000e+00   5.7947801e+01
 5.3834667e+00   4.7408909e+01
 5.3889333e+00   5.7730469e+01
 5.3944000e+00   4.5260375e+01
 5.3998667e+00   4.5841703e+01
 5.4053333e+00   4.4446811e+01
 5.4108000e+00   4.4303656e+01
 5.4162667e+00   4.3869342e+01
 5.4217333e+00   4.4042625e+01
 5.4272000e+00   4.3708013e+01
 5.4326667e+00   4.3909879e+01
 5.4381333e+00   4.3512064e+01
 5.4436000e+00   4.3816276e+01
 5.4490667e+00   4.3467210e+01
 5.4545333e+00   4.3719922e+01
 5.4600000e+00   4.3359091e+01
 5.4654667e+00   4.3635655e+01
 5.4709333e+00   4.3249045e+01
 5.4764000e+00   4.3414613e+01
 5.4818667e+00   4.3338158e+01
 5.4873333e+00   4.3357448e+01
 5.4928000e+00   4.3200090e+01
 5.4982667e+00   4.3319305e+01
 5.5037333e+00   4.3313225e+01
 5.5092000e+00   4.3039103e+01
 5.5146667e+00   4.3383341e+01
 5.5201333e+00   4.3033589e+01
 5.5256000e+00   4.3320705e+01
 5.5310667e+00   4.3012263e+01
 5.5365333e+00   4.3252773e+01
 5.5420000e+00   4.3203172e+01
 5.5474667e+00   4.3414066e+01
 5.5529333e+00   4.3233828e+01
 5.5584000e+00   4.3258978e+01
 5.5638667e+00   4.3330877e+01
 5.5693333e+00   4.3387011e+01
 5.5748000e+00   4.3449172e+01
 5.5802667e+00   4.3410458e+01
 5.5857333e+00   4.3633740e+01
 5.5912000e+00   4.3476724e+01
 5.5966667e+00   4.3652659e+01
 5.6021333e+00   4.3757116e+01
 5.6076000e+00   4.3869324e+01
 5.6130667e+00   4.3701946e+01
 5.6185333e+00   4.4256455e+01
 5.6240000e+00   4.3932925e+01
 5.6294667e+00   4.4418976e+01
 5.6349333e+00   4.4400911e+01
 5.6404000e+00   4.4615905e+01
 5.6458667e+00   4.4622956e+01
 5.6513333e+00   4.5154526e+01
 5.6568000e+00   4.5201561e+01
 5.6622667e+00   4.5339361e+01
 5.6677333e+00   4.6359632e+01
 5.6732000e+00   4.6373232e+01
 5.6786667e+00   4.7700708e+01
 5.6841333e+00   4.9542748e+01
 5.6896000e+00   5.2981029e+01
 5.6950667e+00   5.6792941e+01
 5.7005333e+00   7.3789177e+01
 5.7060000e+00   9.0679654e+01
 5.7114667e+00   9.0394927e+01
 5.7169333e+00   1.2659586e+02
 5.7224000e+00   1.4448343e+02
 5.7278667e+00   1.2954871e+02
 5.7333333e+00   1.9587847e+02
 5.7388000e+00   1.8433402e+02
 5.7442667e+00   1.9235688e+02
 5.7497333e+00   2.1734871e+02
 5.7552000e+00   2.3333321e+02
 5.7606667e+00   2.0508327e+02
 5.7661333e+00   2.4253754e+02
 5.7716000e+00   1.9553930e+02
 5.7770667e+00   2.0327787e+02
 5.7825333e+00   1.6490704e+02
 5.7880000e+00   1.5788231e+02
 5.7934667e+00   1.4663479e+02
 5.7989333e+00   1.2297851e+02
 5.8044000e+00   1.0094193e+02
 5.8098667e+00   9.0162881e+01
 5.8153333e+00   6.7156193e+01
 5.8208000e+00   5.8658359e+01
 5.8262667e+00   5.2678326e+01
 5.8317333e+00   4.9985839e+01
 5.8372000e+00   4.7994047e+01
 5.8426667e+00   4.6872637e+01
 5.8481333e+00   4.5632547e+01
 5.8536000e+00   4.5466416e+01
 5.8590667e+00   4.4612252e+01
 5.8645333e+00   4.4614090e+01
 5.8700000e+00   4.3975422e+01
 5.8754667e+00   4.3826109e+01
 5.8809333e+00   4.3489331e+01
 5.8864000e+00   4.3370593e+01
 5.8918667e+00   4.2906515e+01
 5.8973333e+00   4.3158746e+01
 5.9028000e+00   4.2508367e+01
 5.9082667e+00   4.2351065e+01
 5.9137333e+00   4.2308655e+01
 5.9192000e+00   4.1892280e+01
 5.9246667e+00   4.1800841e+01
 5.9301333e+00   4.1551980e+01
 5.9356000e+00   4.1623007e+01
 5.9410667e+00   4.1402420e+01
 5.9465333e+00   4.1409908e+01
 5.9520000e+00   4.0964356e+01
 5.9574667e+00   4.1274276e+01
 5.9629333e+00   4.1028295e+01
 5.9684000e+00   4.1116325e+01
 5.9738667e+00   4.0935735e+01
 5.9793333e+00   4.1186480e+01
 5.9848000e+00   4.1050463e+01
 5.9902667e+00   4.1139795e+01
 5.9957333e+00   4.1345653e+01
 6.0012000e+00   4.1782276e+01
 6.0066667e+00   4.2465896e+01
 6.0121333e+00   4.3645172e+01
 6.0176000e+00   4.6189382e+01
 6.0230667e+00   5.0217169e+01
 6.0285333e+00   5.7363089e+01
 6.0340000e+00   6.7920221e+01
 6.0394667e+00   8.1881364e+01
 6.0449333e+00   9.6889619e+01
 6.0504000e+00   1.1566607e+02
 6.0558667e+00   1.2945389e+02
 6.0613333e+00   1.4085848e+02
 6.0668000e+00   1.4572389e+02
 6.0722667e+00   1.4514314e+02
 6.0777333e+00   1.3948112e+02
 6.0832000e+00   1.2660225e+02
 6.0886667e+00   1.1088675e+02
 6.0941333e+00   9.5394149e+01
 6.0996000e+00   7.9528715e+01
 6.1050667e+00   6.8894177e+01
 6.1105333e+00   5.8290023e+01
 6.1160000e+00   5.1584651e+01
 6.1214667e+00   4.6642368e+01
 6.1269333e+00   4.4101682e+01
 6.1324000e+00   4.2434421e+01
 6.1378667e+00   4.1469198e+01
 6.1433333e+00   4.1143209e+01
 6.1488000e+00   4.0655252e+01
 6.1542667e+00   4.0397349e+01
 6.1597333e+00   3.9974006e+01
 6.1652000e+00   3.9834209e+01
 6.1706667e+00   3.9700645e+01
 6.1761333e+00   3.9509273e+01
 6.1816000e+00   3.9340783e+01
 6.1870667e+00   3.9159377e+01
 6.1925333e+00   3.9088401e+01
 6.1980000e+00   3.8844067e+01
 6.2034667e+00   3.8920910e+01
 6.2089333e+00   3.8686662e+01
 6.2144000e+00   3.8753537e+01
 6.2198667e+00   3.8610170e+01
 6.2253333e+00   3.8923976e+01
 6.2308000e+00   3.8247672e+01
 6.2362667e+00   3.8854467e+01
 6.2417333e+00   3.8420601e+01
 6.2472000e+00   3.8563195e+01
 6.2526667e+00   3.9371896e+01
 6.2581333e+00   3.8720099e+01
 6.2636000e+00   4.2541864e+01
 6.2690667e+00   3.8462442e+01
 6.2745333e+00   3.9233122e+01
 6.2800000e+00   3.8292514e+01
 6.2854667e+00   3.8409172e+01
 6.2909333e+00   3.8332775e+01
 6.2964000e+00   3.8187922e+01
 6.3018667e+00   3.8246406e+01
 6.3073333e+00   3.8322920e+01
 6.3128000e+00   3.8212020e+01
 6.3182667e+00   3.8306953e+01
 6.3237333e+00   3.8358794e+01
 6.3292000e+00   3.8409742e+01
 6.3346667e+00   3.8517105e+01
 6.3401333e+00   3.8879828e+01
 6.3456000e+00   3.8974442e+01
 6.3510667e+00   3.9420960e+01
 6.3565333e+00   4.0056700e+01
 6.3620000e+00   4.1025126e+01
 6.3674667e+00   4.2396685e+01
 6.3729333e+00   4.4526455e+01
 6.3784000e+00   4.7887370e+01
 6.3838667e+00   5.1110814e+01
 6.3893333e+00   5.6196005e+01
 6.3948000e+00   6.0570072e+01
 6.4002667e+00   6.5418844e+01
 6.4057333e+00   6.7980647e+01
 6.4112000e+00   7.0900726e+01
 6.4166667e+00   6.9996672e+01
 6.4221333e+00   6.9105363e+01
 6.4276000e+00   6.6335652e+01
 6.4330667e+00   6.3122298e+01
 6.4385333e+00   5.9267156e+01
 6.4440000e+00   5.6161994e+01
 6.4494667e+00   5.1679773e+01
 6.4549333e+00   4.9531960e+01
 6.4604000e+00   4.5869469e+01
 6.4658667e+00   4.4242177e+01
 6.4713333e+00   4.2114675e+01
 6.4768000e+00   4.0735235e+01
 6.4822667e+00   3.9689074e+01
 6.4877333e+00   3.9019124e+01
 6.4932000e+00   3.8701567e+01
 6.4986667e+00   3.8267093e+01
 6.5041333e+00   3.8257644e+01
 6.5096000e+00   3.7988490e+01
 6.5150667e+00   3.7999192e+01
 6.5205333e+00   3.7690227e+01
 6.5260000e+00   3.8069199e+01
 6.5314667e+00   3.7582280e+01
 6.5369333e+00   3.7789969e+01
 6.5424000e+00   3.7575473e+01
 6.5478667e+00   3.7965029e+01
 6.5533333e+00   3.7584357e+01
 6.5588000e+00   3.7994183e+01
 6.5642667e+00   3.7564577e+01
 6.5697333e+00   3.7782345e+01
 6.5752000e+00   3.7471757e+01
 6.5806667e+00   3.7496861e+01
 6.5861333e+00   3.7607645e+01
 6.5916000e+00   3.7493241e+01
 6.5970667e+00   3.7582294e+01
 6.6025333e+00   3.7474783e+01
 6.6080000e+00   3.7648749e+01
 6.6134667e+00   3.7336031e+01
 6.6189333e+00   3.7685880e+01
 6.6244000e+00   3.7420643e+01
 6.6298667e+00   3.7584326e+01
 6.6353333e+00   3.7518489e+01
 6.6408000e+00   3.7715159e+01
 6.6462667e+00   3.7506826e+01
 6.6517333e+00   3.7896073e+01
 6.6572000e+00   3.7523146e+01
 6.6626667e+00   3.7860707e+01
 6.6681333e+00   3.7708659e+01
 6.6736000e+00   3.7637801e+01
 6.6790667e+00   3.7729992e+01
 6.6845333e+00   3.7854085e+01
 6.6900000e+00   3.7640242e+01
 6.6954667e+00   3.7764135e+01
 6.7009333e+00   3.7882232e+01
 6.7064000e+00   3.7527601e+01
 6.7118667e+00   3.7895441e+01
 6.7173333e+00   3.7725912e+01
 6.7228000e+00   3.7691020e+01
 6.7282667e+00   3.7758246e+01
 6.7337333e+00   3.7868606e+01
 6.7392000e+00   3.7637495e+01
 6.7446667e+00   3.8050820e+01
 6.7501333e+00   3.7813906e+01
 6.7556000e+00   3.8004506e+01
 6.7610667e+00   3.7832075e+01
 6.7665333e+00   3.7999973e+01
 6.7720000e+00   3.7840428e+01
 6.7774667e+00   3.8001670e+01
 6.7829333e+00   3.7935714e+01
 6.7884000e+00   3.7911327e+01
 6.7938667e+00   3.8074721e+01
 6.7993333e+00   3.7911151e+01
 6.8048000e+00   3.8248632e+01
 6.8102667e+00   3.7976356e+01
 6.8157333e+00   3.8350188e+01
 6.8212000e+00   3.8033194e+01
 6.8266667e+00   3.8492105e+01
 6.8321333e+00   3.8142196e+01
 6.8376000e+00   3.8583046e+01
 6.8430667e+00   3.8242233e+01
 6.8485333e+00   3.8616041e+01
 6.8540000e+00   3.8369108e+01
 6.8594667e+00   3.8737561e+01
 6.8649333e+00   3.8418459e+01
 6.8704000e+00   3.8783063e+01
 6.8758667e+00   3.8744598e+01
 6.8813333e+00   3.8679313e+01
 6.8868000e+00   3.8851991e+01
 6.8922667e+00   3.8812191e+01
 6.8977333e+00   3.8886807e+01
 6.9032000e+00   3.8894557e+01
 6.9086667e+00   3.9256459e+01
 6.9141333e+00   3.9051554e+01
 6.9196000e+00   3.9345788e+01
 6.9250667e+00   3.9280748e+01
 6.9305333e+00   3.9429448e+01
 6.9360000e+00   3.9416271e+01
 6.9414667e+00   3.9687212e+01
 6.9469333e+00   3.9445138e+01
 6.9524000e+00   3.9865020e+01
 6.9578667e+00   3.9595383e+01
 6.9633333e+00   4.0084079e+01
 6.9688000e+00   3.9803397e+01
 6.9742667e+00   4.0291276e+01
 6.9797333e+00   4.0112733e+01
 6.9852000e+00   4.0457977e+01
 6.9906667e+00   4.0305644e+01
 6.9961333e+00   4.0638831e+01
 7.0016000e+00   4.0656286e+01
 7.0070667e+00   4.0714664e+01
 7.0125333e+00   4.0996075e+01
 7.0180000e+00   4.0930864e+01
 7.0234667e+00   4.1172132e+01
 7.0289333e+00   4.1284961e+01
 7.0344000e+00   4.1569636e+01
 7.0398667e+00   4.1453831e+01
 7.0453333e+00   4.1827713e+01
 7.0508000e+00   4.2024232e+01
 7.0562667e+00   4.2422188e+01
 7.0617333e+00   4.2752301e+01
 7.0672000e+00   4.3803978e+01
 7.0726667e+00   4.4956400e+01
 7.0781333e+00   4.7218040e+01
 7.0836000e+00   5.1208433e+01
 7.0890667e+00   5.7250614e+01
 7.0945333e+00   6.6928137e+01
 7.1000000e+00   7.7478299e+01
 7.1054667e+00   9.1954014e+01
 7.1109333e+00   1.0641215e+02
 7.1164000e+00   1.1813056e+02
 7.1218667e+00   1.2845378e+02
 7.1273333e+00   1.3234457e+02
 7.1328000e+00   1.3426424e+02
 7.1382667e+00   1.2954846e+02
 7.1437333e+00   1.2142724e+02
 7.1492000e+00   1.1128902e+02
 7.1546667e+00   9.9905306e+01
 7.1601333e+00   8.7970852e+01
 7.1656000e+00   7.5451468e+01
 7.1710667e+00   6.6106026e+01
 7.1765333e+00   5.7715496e+01
 7.1820000e+00   5.2085190e+01
 7.1874667e+00   4.8493763e+01
 7.1929333e+00   4.6257103e+01
 7.1984000e+00   4.4925877e+01
 7.2038667e+00   4.4224533e+01
 7.2093333e+00   4.3889664e+01
 7.2148000e+00   4.3237215e+01
 7.2202667e+00   4.3176844e+01
 7.2257333e+00   4.2784467e+01
 7.2312000e+00   4.2717105e+01
 7.2366667e+00   4.2649829e+01
 7.2421333e+00   4.2535898e+01
 7.2476000e+00   4.2242884e+01
 7.2530667e+00   4.2446746e+01
 7.2585333e+00   4.2074717e+01
 7.2640000e+00   4.2379025e+01
 7.2694667e+00   4.2011922e+01
 7.2749333e+00   4.2256369e+01
 7.2804000e+00   4.2031507e+01
 7.2858667e+00   4.2130826e+01
 7.2913333e+00   4.1980614e+01
 7.2968000e+00   4.2238156e+01
 7.3022667e+00   4.2015985e+01
 7.3077333e+00   4.2036463e+01
 7.3132000e+00   4.2115141e+01
 7.3186667e+00   4.1962119e+01
 7.3241333e+00   4.2032841e+01
 7.3296000e+00   4.1951938e+01
 7.3350667e+00   4.2057448e+01
 7.3405333e+00   4.2096855e+01
 7.3460000e+00   4.2164516e+01
 7.3514667e+00   4.1991055e+01
 7.3569333e+00   4.2021472e+01
 7.3624000e+00   4.2081522e+01
 7.3678667e+00   4.2133425e+01
 7.3733333e+00   4.2142084e+01
 7.3788000e+00   4.2219984e+01
 7.3842667e+00   4.2200837e+01
 7.3897333e+00   4.2221620e+01
 7.3952000e+00   4.2203085e+01
 7.4006667e+00   4.2258055e+01
 7.4061333e+00   4.2243789e+01
 7.4116000e+00   4.2393850e+01
 7.4170667e+00   4.2288441e+01
 7.4225333e+00   4.2370069e+01
 7.4280000e+00   4.2371190e+01
 7.4334667e+00   4.2408105e+01
 7.4389333e+00   4.2445978e+01
 7.4444000e+00   4.2286615e+01
 7.4498667e+00   4.2556760e+01
 7.4553333e+00   4.2358767e+01
 7.4608000e+00   4.2597295e+01
 7.4662667e+00   4.2410902e+01
 7.4717333e+00   4.2598222e+01
 7.4772000e+00   4.2474627e+01
 7.4826667e+00   4.2728959e+01
 7.4881333e+00   4.2677534e+01
 7.4936000e+00   4.2532432e+01
 7.4990667e+00   4.2917003e+01
 7.5045333e+00   4.2803800e+01
 7.5100000e+00   4.2953816e+01
 7.5154667e+00   4.2785891e+01
 7.5209333e+00   4.3085469e+01
 7.5264000e+00   4.2734044e+01
 7.5318667e+00   4.3046590e+01
 7.5373333e+00   4.2881057e+01
 7.5428000e+00   4.3179135e+01
 7.5482667e+00   4.2896097e+01
 7.5537333e+00   4.3290965e+01
 7.5592000e+00   4.3050155e+01
 7.5646667e+00   4.3229985e+01
 7.5701333e+00   4.3057076e+01
 7.5756000e+00   4.3410546e+01
 7.5810667e+00   4.3405840e+01
 7.5865333e+00   4.3518667e+01
 7.5920000e+00   4.3558964e+01
 7.5974667e+00   4.3677152e+01
 7.6029333e+00   4.3572530e+01
 7.6084000e+00   4.3765776e+01
 7.6138667e+00   4.3676816e+01
 7.6193333e+00   4.3630097e+01
 7.6248000e+00   4.3974118e+01
 7.6302667e+00   4.3662566e+01
 7.6357333e+00   4.3898556e+01
 7.6412000e+00   4.3927954e+01
 7.6466667e+00   4.4157959e+01
 7.6521333e+00   4.4131183e+01
 7.6576000e+00   4.4400562e+01
 7.6630667e+00   4.4455137e+01
 7.6685333e+00   4.4474947e+01
 7.6740000e+00   4.4581615e+01
 7.6794667e+00   4.4685305e+01
 7.6849333e+00   4.4796853e+01
 7.6904000e+00   4.4855183e+01
 7.6958667e+00   4.4915330e+01
 7.7013333e+00   4.5137734e+01
 7.7068000e+00   4.5169593e+01
 7.7122667e+00   4.5239406e+01
 7.7177333e+00   4.5538877e+01
 7.7232000e+00   4.5487418e+01
 7.7286667e+00   4.5844935e+01
 7.7341333e+00   4.5831922e+01
 7.7396000e+00   4.6146839e+01
 7.7450667e+00   4.6203379e+01
 7.7505333e+00   4.6563590e+01
 7.7560000e+00   4.6582993e+01
 7.7614667e+00   4.7096205e+01
 7.7669333e+00   4.7097840e+01
 7.7724000e+00   4.7744561e+01
 7.7778667e+00   4.7819322e+01
 7.7833333e+00   4.8593513e+01
 7.7888000e+00   4.9032610e+01
 7.7942667e+00   5.0132861e+01
 7.7997333e+00   5.1623714e+01
 7.8052000e+00   5.4532476e+01
 7.8106667e+00   5.8948805e+01
 7.8161333e+00   6.6622468e+01
 7.8216000e+00   7.8507277e+01
 7.8270667e+00   9.3744578e+01
 7.8325333e+00   1.1311384e+02
 7.8380000e+00   1.3600845e+02
 7.8434667e+00   1.5458101e+02
 7.8489333e+00   1.7097610e+02
 7.8544000e+00   1.8073797e+02
 7.8598667e+00   1.8643500e+02
 7.8653333e+00   1.8048958e+02
 7.8708000e+00   1.7096625e+02
 7.8762667e+00   1.5511867e+02
 7.8817333e+00   1.3451659e+02
 7.8872000e+00   1.1706619e+02
 7.8926667e+00   9.6814858e+01
 7.8981333e+00   8.3755118e+01
 7.9036000e+00   7.1263930e+01
 7.9090667e+00   6.3589967e+01
 7.9145333e+00   5.8168264e+01
 7.9200000e+00   5.4844704e+01
 7.9254667e+00   5.3089753e+01
 7.9309333e+00   5.1666289e+01
 7.9364000e+00   5.1103556e+01
 7.9418667e+00   5.0405627e+01
 7.9473333e+00   5.0304911e+01
 7.9528000e+00   4.9625043e+01
 7.9582667e+00   4.9924440e+01
 7.9637333e+00   4.9249577e+01
 7.9692000e+00   4.9517947e+01
 7.9746667e+00   4.9192033e+01
 7.9801333e+00   4.9442181e+01
 7.9856000e+00   4.8842167e+01
 7.9910667e+00   4.9270756e+01
 7.9965333e+00   4.8979104e+01
 8.0020000e+00   4.9091402e+01
 8.0074667e+00   4.8902953e+01
 8.0129333e+00   4.9216164e+01
 8.0184000e+00   4.9155913e+01
 8.0238667e+00   4.9071246e+01
 8.0293333e+00   4.9570210e+01
 8.0348000e+00   4.9218448e+01
 8.0402667e+00   4.9668393e+01
 8.0457333e+00   4.9425666e+01
 8.0512000e+00   5.0026934e+01
 8.0566667e+00   4.9919355e+01
 8.0621333e+00   5.0474117e+01
 8.0676000e+00   5.0466352e+01
 8.0730667e+00   5.0962836e+01
 8.0785333e+00   5.1484008e+01
 8.0840000e+00   5.2149400e+01
 8.0894667e+00   5.4970727e+01
 8.0949333e+00   5.6168887e+01
 8.1004000e+00   6.7697257e+01
 8.1058667e+00   6.0611844e+01
 8.1113333e+00   8.1552181e+01
 8.1168000e+00   8.6131439e+01
 8.1222667e+00   1.1434488e+02
 8.1277333e+00   9.4864267e+01
 8.1332000e+00   1.3730174e+02
 8.1386667e+00   1.2080407e+02
 8.1441333e+00   1.1473455e+02
 8.1496000e+00   1.0290699e+02
 8.1550667e+00   1.1979639e+02
 8.1605333e+00   9.8034884e+01
 8.1660000e+00   1.3741392e+02
 8.1714667e+00   1.0400898e+02
 8.1769333e+00   1.2129204e+02
 8.1824000e+00   1.0941849e+02
 8.1878667e+00   1.0200386e+02
 8.1933333e+00   1.0670592e+02
 8.1988000e+00   9.3219930e+01
 8.2042667e+00   1.0917793e+02
 8.2097333e+00   8.6749259e+01
 8.2152000e+00   8.4504729e+01
 8.2206667e+00   6.9395212e+01
 8.2261333e+00   6.6527535e+01
 8.2316000e+00   6.4178346e+01
 8.2370667e+00   6.3681284e+01
 8.2425333e+00   6.2550676e+01
 8.2480000e+00   6.1217793e+01
 8.2534667e+00   5.9512107e+01
 8.2589333e+00   5.8281086e+01
 8.2644000e+00   5.6152922e+01
 8.2698667e+00   5.5272937e+01
 8.2753333e+00   5.3246421e+01
 8.2808000e+00   5.2988216e+01
 8.2862667e+00   5.1822140e+01
 8.2917333e+00   5.1821560e+01
 8.2972000e+00   5.1236805e+01
 8.3026667e+00   5.1295383e+01
 8.3081333e+00   5.1087833e+01
 8.3136000e+00   5.1148956e+01
 8.3190667e+00   5.0914698e+01
 8.3245333e+00   5.1309877e+01
 8.3300000e+00   5.1232498e+01
 8.3354667e+00   5.1412117e+01
 8.3409333e+00   5.1576422e+01
 8.3464000e+00   5.2077484e+01
 8.3518667e+00   5.2647457e+01
 8.3573333e+00   5.3629766e+01
 8.3628000e+00   5.6114880e+01
 8.3682667e+00   5.8697313e+01
 8.3737333e+00   6.5100900e+01
 8.3792000e+00   7.1068034e+01
 8.3846667e+00   8.1992843e+01
 8.3901333e+00   9.1675174e+01
 8.3956000e+00   1.0372047e+02
 8.4010667e+00   1.1398091e+02
 8.4065333e+00   1.2355078e+02
 8.4120000e+00   1.2869925e+02
 8.4174667e+00   1.3060798e+02
 8.4229333e+00   1.2678747e+02
 8.4284000e+00   1.1934536e+02
 8.4338667e+00   1.0740777e+02
 8.4393333e+00   9.5837255e+01
 8.4448000e+00   8.3487176e+01
 8.4502667e+00   7.4073734e+01
 8.4557333e+00   6.6453099e+01
 8.4612000e+00   6.0920059e+01
 8.4666667e+00   5.7993886e+01
 8.4721333e+00   5.5748896e+01
 8.4776000e+00   5.5855977e+01
 8.4830667e+00   5.5936345e+01
 8.4885333e+00   5.8621840e+01
 8.4940000e+00   6.0928499e+01
 8.4994667e+00   6.6967640e+01
 8.5049333e+00   7.1532401e+01
 8.5104000e+00   7.9874833e+01
 8.5158667e+00   8.5255529e+01
 8.5213333e+00   9.2714005e+01
 8.5268000e+00   9.6713387e+01
 8.5322667e+00   1.0121007e+02
 8.5377333e+00   1.0188269e+02
 8.5432000e+00   1.0104427e+02
 8.5486667e+00   9.5629349e+01
 8.5541333e+00   8.9656579e+01
 8.5596000e+00   8.0443960e+01
 8.5650667e+00   7.2903021e+01
 8.5705333e+00   6.5437357e+01
 8.5760000e+00   5.9794532e+01
 8.5814667e+00   5.6686073e+01
 8.5869333e+00   5.3483507e+01
 8.5924000e+00   5.1953587e+01
 8.5978667e+00   5.0741043e+01
 8.6033333e+00   5.0531065e+01
 8.6088000e+00   4.9601832e+01
 8.6142667e+00   4.9709453e+01
 8.6197333e+00   4.9030401e+01
 8.6252000e+00   4.9219256e+01
 8.6306667e+00   4.8668966e+01
 8.6361333e+00   4.8759561e+01
 8.6416000e+00   4.8287195e+01
 8.6470667e+00   4.8404060e+01
 8.6525333e+00   4.7975937e+01
 8.6580000e+00   4.8100264e+01
 8.6634667e+00   4.7702248e+01
 8.6689333e+00   4.7745331e+01
 8.6744000e+00   4.7570983e+01
 8.6798667e+00   4.7478201e+01
 8.6853333e+00   4.7326934e+01
 8.6908000e+00   4.7386693e+01
 8.6962667e+00   4.7071705e+01
 8.7017333e+00   4.7022296e+01
 8.7072000e+00   4.7190647e+01
 8.7126667e+00   4.6780659e+01
 8.7181333e+00   4.6832204e+01
 8.7236000e+00   4.6576897e+01
 8.7290667e+00   4.6768115e+01
 8.7345333e+00   4.6473176e+01
 8.7400000e+00   4.6601451e+01
 8.7454667e+00   4.6165478e+01
 8.7509333e+00   4.6514307e+01
 8.7564000e+00   4.5953056e+01
 8.7618667e+00   4.6270443e+01
 8.7673333e+00   4.5996983e+01
 8.7728000e+00   4.6143667e+01
 8.7782667e+00   4.5834827e+01
 8.7837333e+00   4.5941250e+01
 8.7892000e+00   4.5765387e+01
 8.7946667e+00   4.5857594e+01
 8.8001333e+00   4.5764899e+01
 8.8056000e+00   4.5641411e+01
 8.8110667e+00   4.5670945e+01
 8.8165333e+00   4.5634406e+01
 8.8220000e+00   4.5588048e+01
 8.8274667e+00   4.5515732e+01
 8.8329333e+00   4.5495889e+01
 8.8384000e+00   4.5328591e+01
 8.8438667e+00   4.5655171e+01
 8.8493333e+00   4.5289970e+01
 8.8548000e+00   4.5504907e+01
 8.8602667e+00   4.5607031e+01
 8.8657333e+00   4.5504657e+01
 8.8712000e+00   4.5409164e+01
 8.8766667e+00   4.6007520e+01
 8.8821333e+00   4.6179007e+01
 8.8876000e+00   4.7149376e+01
 8.8930667e+00   4.8107997e+01
 8.8985333e+00   4.9777358e+01
 8.9040000e+00   5.1437859e+01
 8.9094667e+00   5.3803480e+01
 8.9149333e+00   5.5478715e+01
 8.9204000e+00   5.6671160e+01
 8.9258667e+00   5.7709104e+01
 8.9313333e+00   5.7137680e+01
 8.9368000e+00   5.6416117e+01
 8.9422667e+00   5.4431649e+01
 8.9477333e+00   5.2444033e+01
 8.9532000e+00   5.0060054e+01
 8.9586667e+00   4.8732208e+01
 8.9641333e+00   4.6997906e+01
 8.9696000e+00   4.6451791e+01
 8.9750667e+00   4.5469047e+01
 8.9805333e+00   4.5101726e+01
 8.9860000e+00   4.4599736e+01
 8.9914667e+00   4.4500769e+01
 8.9969333e+00   4.4047674e+01
 9.0024000e+00   4.4215466e+01
 9.0078667e+00   4.3991443e+01
 9.0133333e+00   4.4011485e+01
 9.0188000e+00   4.4135319e+01
 9.0242667e+00   4.3979826e+01
 9.0297333e+00   4.4237670e+01
 9.0352000e+00   4.4518146e+01
 9.0406667e+00   4.5028137e+01
 9.0461333e+00   4.5434591e+01
 9.0516000e+00   4.6457658e+01
 9.0570667e+00   4.7290367e+01
 9.0625333e+00   4.8721462e+01
 9.0680000e+00   4.9432268e+01
 9.0734667e+00   5.0881134e+01
 9.0789333e+00   5.0904146e+01
 9.0844000e+00   5.1709453e+01
 9.0898667e+00   5.1174353e+01
 9.0953333e+00   5.0818975e+01
 9.1008000e+00   4.9411284e+01
 9.1062667e+00   4.8669288e+01
 9.1117333e+00   4.6903942e+01
 9.1172000e+00   4.6285996e+01
 9.1226667e+00   4.4929206e+01
 9.1281333e+00   4.4493641e+01
 9.1336000e+00   4.3486168e+01
 9.1390667e+00   4.3291021e+01
 9.1445333e+00   4.2839087e+01
 9.1500000e+00   4.2562840e+01
 9.1554667e+00   4.2421403e+01
 9.1609333e+00   4.2220966e+01
 9.1664000e+00   4.2174322e+01
 9.1718667e+00   4.2048848e+01
 9.1773333e+00   4.1877648e+01
 9.1828000e+00   4.1908508e+01
 9.1882667e+00   4.1849925e+01
 9.1937333e+00   4.1635005e+01
 9.1992000e+00   4.1912211e+01
 9.2046667e+00   4.1449407e+01
 9.2101333e+00   4.1648780e+01
 9.2156000e+00   4.1617891e+01
 9.2210667e+00   4.1502679e+01
 9.2265333e+00   4.1401793e+01
 9.2320000e+00   4.1780663e+01
 9.2374667e+00   4.1304185e+01
 9.2429333e+00   4.1586474e+01
 9.2484000e+00   4.1378855e+01
 9.2538667e+00   4.1384404e+01
 9.2593333e+00   4.1249410e+01
 9.2648000e+00   4.1539643e+01
 9.2702667e+00   4.1327244e+01
 9.2757333e+00   4.1533059e+01
 9.2812000e+00   4.1500285e+01
 9.2866667e+00   4.1573371e+01
 9.2921333e+00   4.1438108e+01
 9.2976000e+00   4.1407100e+01
 9.3030667e+00   4.1469548e+01
 9.3085333e+00   4.1546078e+01
 9.3140000e+00   4.1824323e+01
 9.3194667e+00   4.2030372e+01
 9.3249333e+00   4.2482652e+01
 9.3304000e+00   4.3063758e+01
 9.3358667e+00   4.4244756e+01
 9.3413333e+00   4.5333190e+01
 9.3468000e+00   4.7084948e+01
 9.3522667e+00   4.8566596e+01
 9.3577333e+00   5.0479292e+01
 9.3632000e+00   5.1222838e+01
 9.3686667e+00   5.2477643e+01
 9.3741333e+00   5.2448159e+01
 9.3796000e+00   5.2254999e+01
 9.3850667e+00   5.0659429e+01
 9.3905333e+00   4.9563451e+01
 9.3960000e+00   4.7546200e+01
 9.4014667e+00   4.5999856e+01
 9.4069333e+00   4.4570285e+01
 9.4124000e+00   4.3593838e+01
 9.4178667e+00   4.2454814e+01
 9.4233333e+00   4.2117117e+01
 9.4288000e+00   4.1610079e+01
 9.4342667e+00   4.1349080e+01
 9.4397333e+00   4.1401649e+01
 9.4452000e+00   4.1383736e+01
 9.4506667e+00   4.1296696e+01
 9.4561333e+00   4.1348914e+01
 9.4616000e+00   4.1536162e+01
 9.4670667e+00   4.1513569e+01
 9.4725333e+00   4.1871880e+01
 9.4780000e+00   4.2182577e+01
 9.4834667e+00   4.2755423e+01
 9.4889333e+00   4.2909219e+01
 9.4944000e+00   4.8538712e+01
 9.4998667e+00   4.5543799e+01
 9.5053333e+00   6.4318878e+01
 9.5108000e+00   5.8475518e+01
 9.5162667e+00   7.4931669e+01
 9.5217333e+00   7.4310160e+01
 9.5272000e+00   8.0881041e+01
 9.5326667e+00   9.1434429e+01
 9.5381333e+00   9.0782843e+01
 9.5436000e+00   1.0640784e+02
 9.5490667e+00   1.1113652e+02
 9.5545333e+00   1.0966505e+02
 9.5600000e+00   1.2827669e+02
 9.5654667e+00   1.1603800e+02
 9.5709333e+00   1.1225183e+02
 9.5764000e+00   1.0498496e+02
 9.5818667e+00   1.1809349e+02
 9.5873333e+00   9.4130568e+01
 9.5928000e+00   9.1645561e+01
 9.5982667e+00   1.0164231e+02
 9.6037333e+00   6.7515857e+01
 9.6092000e+00   7.4657483e+01
 9.6146667e+00   5.2427580e+01
 9.6201333e+00   5.0242507e+01
 9.6256000e+00   4.5791181e+01
 9.6310667e+00   4.3194779e+01
 9.6365333e+00   4.1561232e+01
 9.6420000e+00   4.1057951e+01
 9.6474667e+00   4.0611753e+01
 9.6529333e+00   4.0380712e+01
 9.6584000e+00   4.0251686e+01
 9.6638667e+00   4.0051726e+01
 9.6693333e+00   3.9823383e+01
 9.6748000e+00   3.9873092e+01
 9.6802667e+00   3.9675986e+01
 9.6857333e+00   3.9613105e+01
 9.6912000e+00   3.9419383e+01
 9.6966667e+00   3.9461704e+01
 9.7021333e+00   3.9390472e+01
 9.7076000e+00   3.9140744e+01
 9.7130667e+00   3.9125423e+01
 9.7185333e+00   3.9136575e+01
 9.7240000e+00   3.8910591e+01
 9.7294667e+00   3.8879039e+01
 9.7349333e+00   3.8743422e+01
 9.7404000e+00   3.8580150e+01
 9.7458667e+00   3.8395000e+01
 9.7513333e+00   3.8575639e+01
 9.7568000e+00   3.8230464e+01
 9.7622667e+00   3.8262562e+01
 9.7677333e+00   3.8390175e+01
 9.7732000e+00   3.8250986e+01
 9.7786667e+00   3.8286663e+01
 9.7841333e+00   3.8554733e+01
 9.7896000e+00   3.8881678e+01
 9.7950667e+00   3.9361238e+01
 9.8005333e+00   4.0620987e+01
 9.8060000e+00   4.1785168e+01
 9.8114667e+00   4.2914769e+01
 9.8169333e+00   4.4589210e+01
 9.8224000e+00   4.5708990e+01
 9.8278667e+00   4.6867979e+01
 9.8333333e+00   4.7655549e+01
 9.8388000e+00   4.7370487e+01
 9.8442667e+00   4.6736641e+01
 9.8497333e+00   4.5581768e+01
 9.8552000e+00   4.3950802e+01
 9.8606667e+00   4.2604726e+01
 9.8661333e+00   4.1254934e+01
 9.8716000e+00   4.0134035e+01
 9.8770667e+00   3.9353906e+01
 9.8825333e+00   3.8733160e+01
 9.8880000e+00   3.8259762e+01
 9.8934667e+00   3.8275039e+01
 9.8989333e+00   3.8009636e+01
 9.9044000e+00   3.7907305e+01
 9.9098667e+00   3.8112415e+01
 9.9153333e+00   3.8426964e+01
 9.9208000e+00   3.8161175e+01
 9.9262667e+00   3.8784777e+01
 9.9317333e+00   3.9455579e+01
 9.9372000e+00   4.0282262e+01
 9.9426667e+00   4.3248693e+01
 9.9481333e+00   4.5495041e+01
 9.9536000e+00   4.9914967e+01
 9.9590667e+00   5.6498581e+01
 9.9645333e+00   5.5895042e+01
 9.9700000e+00   7.3316555e+01
 9.9754667e+00   7.4966055e+01
 9.9809333e+00   8.3379833e+01
 9.9864000e+00   8.8246900e+01
 9.9918667e+00   9.6286311e+01
 9.9973333e+00   8.0064851e+01
 1.0002800e+01   7.1670591e+01
 1.0008267e+01   7.8972335e+01
 1.0013733e+01   6.6600729e+01
 1.0019200e+01   7.2717710e+01
 1.0024667e+01   6.1373571e+01
 1.0030133e+01   7.1711042e+01
 1.0035600e+01   6.5537235e+01
 1.0041067e+01   4.7497670e+01
 1.0046533e+01   5.2961873e+01
 1.0052000e+01   4.2969419e+01
 1.0057467e+01   3.9032580e+01
 1.0062933e+01   3.8993182e+01
 1.0068400e+01   3.8110982e+01
 1.0073867e+01   3.7777213e+01
 1.0079333e+01   3.7586871e+01
 1.0084800e+01   3.7399062e+01
 1.0090267e+01   3.7444167e+01
 1.0095733e+01   3.7419263e+01
 1.0101200e+01   3.7396764e+01
 1.0106667e+01   3.7824290e+01
 1.0112133e+01   3.7833122e+01
 1.0117600e+01   3.8386375e+01
 1.0123067e+01   3.8854414e+01
 1.0128533e+01   3.9384791e+01
 1.0134000e+01   4.0084857e+01
 1.0139467e+01   4.0914831e+01
 1.0144933e+01   4.1429553e+01
 1.0150400e+01   4.2232316e+01
 1.0155867e+01   4.2617540e+01
 1.0161333e+01   4.2714997e+01
 1.0166800e+01   4.2565389e+01
 1.0172267e+01   4.2341702e+01
 1.0177733e+01   4.1527655e+01
 1.0183200e+01   4.0746585e+01
 1.0188667e+01   3.9988889e+01
 1.0194133e+01   3.8890696e+01
 1.0199600e+01   3.8366378e+01
 1.0205067e+01   3.7420238e+01
 1.0210533e+01   3.6931264e+01
 1.0216000e+01   3.6380290e+01
 1.0221467e+01   3.6253884e+01
 1.0226933e+01   3.5938128e+01
 1.0232400e+01   3.5823293e+01
 1.0237867e+01   3.5612517e+01
 1.0243333e+01   3.5633634e+01
 1.0248800e+01   3.5441675e+01
 1.0254267e+01   3.5465116e+01
 1.0259733e+01   3.5244680e+01
 1.0265200e+01   3.5322340e+01
 1.0270667e+01   3.5093176e+01
 1.0276133e+01   3.5083539e+01
 1.0281600e+01   3.5070435e+01
 1.0287067e+01   3.5054309e+01
 1.0292533e+01   3.5017866e+01
 1.0298000e+01   3.4911597e+01
 1.0303467e+01   3.5063250e+01
 1.0308933e+01   3.4705741e+01
 1.0314400e+01   3.5069296e+01
 1.0319867e+01   3.4768941e+01
 1.0325333e+01   3.4826811e+01
 1.0330800e+01   3.4793243e+01
 1.0336267e+01   3.4593223e+01
 1.0341733e+01   3.4728972e+01
 1.0347200e+01   3.4748295e+01
 1.0352667e+01   3.4631122e+01
 1.0358133e+01   3.4659578e+01
 1.0363600e+01   3.4548623e+01
 1.0369067e+01   3.4699917e+01
 1.0374533e+01   3.4471517e+01
 1.0380000e+01   3.4620115e+01
 1.0385467e+01   3.4504725e+01
 1.0390933e+01   3.4458928e+01
 1.0396400e+01   3.4675006e+01
 1.0401867e+01   3.4354461e+01
 1.0407333e+01   3.4643884e+01
 1.0412800e+01   3.4438284e+01
 1.0418267e+01   3.4853225e+01
 1.0423733e+01   3.4480705e+01
 1.0429200e+01   3.5053142e+01
 1.0434667e+01   3.4683122e+01
 1.0440133e+01   3.4700585e+01
 1.0445600e+01   3.4631109e+01
 1.0451067e+01   3.4647401e+01
 1.0456533e+01   3.4570082e+01
 1.0462000e+01   3.4683761e+01
 1.0467467e+01   3.4696790e+01
 1.0472933e+01   3.4702891e+01
 1.0478400e+01   3.4742226e+01
 1.0483867e+01   3.4744431e+01
 1.0489333e+01   3.4677402e+01
 1.0494800e+01   3.4732554e+01
 1.0500267e+01   3.4686715e+01
 1.0505733e+01   3.4795074e+01
 1.0511200e+01   3.4696721e+01
 1.0516667e+01   3.4842324e+01
 1.0522133e+01   3.4610613e+01
 1.0527600e+01   3.4999978e+01
 1.0533067e+01   3.4840988e+01
 1.0538533e+01   3.4908952e+01
 1.0544000e+01   3.5036264e+01
 1.0549467e+01   3.4933969e+01
 1.0554933e+01   3.5191466e+01
 1.0560400e+01   3.5141212e+01
 1.0565867e+01   3.5500336e+01
 1.0571333e+01   3.5776681e+01
 1.0576800e+01   3.6585192e+01
 1.0582267e+01   3.7476980e+01
 1.0587733e+01   3.9270510e+01
 1.0593200e+01   4.1122312e+01
 1.0598667e+01   4.3548315e+01
 1.0604133e+01   4.5990320e+01
 1.0609600e+01   4.8082748e+01
 1.0615067e+01   4.9715725e+01
 1.0620533e+01   5.1023002e+01
 1.0626000e+01   5.1012593e+01
 1.0631467e+01   5.1406647e+01
 1.0636933e+01   4.9031954e+01
 1.0642400e+01   4.9301058e+01
 1.0647867e+01   4.4510391e+01
 1.0653333e+01   4.2662101e+01
 1.0658800e+01   4.0589359e+01
 1.0664267e+01   3.8637590e+01
 1.0669733e+01   3.7427206e+01
 1.0675200e+01   3.6381820e+01
 1.0680667e+01   3.5920678e+01
 1.0686133e+01   3.5519569e+01
 1.0691600e+01   3.5534395e+01
 1.0697067e+01   3.5259227e+01
 1.0702533e+01   3.5424335e+01
 1.0708000e+01   3.5205023e+01
 1.0713467e+01   3.5173021e+01
 1.0718933e+01   3.5455391e+01
 1.0724400e+01   3.5085178e+01
 1.0729867e+01   3.5166197e+01
 1.0735333e+01   3.4985082e+01
 1.0740800e+01   3.4998994e+01
 1.0746267e+01   3.4995100e+01
 1.0751733e+01   3.4931243e+01
 1.0757200e+01   3.5001957e+01
 1.0762667e+01   3.4900095e+01
 1.0768133e+01   3.4873640e+01
 1.0773600e+01   3.4792995e+01
 1.0779067e+01   3.4878311e+01
 1.0784533e+01   3.4802575e+01
 1.0790000e+01   3.4862263e+01
 1.0795467e+01   3.4894187e+01
 1.0800933e+01   3.4766602e+01
 1.0806400e+01   3.4765414e+01
 1.0811867e+01   3.4871299e+01
 1.0817333e+01   3.4716421e+01
 1.0822800e+01   3.4794914e+01
 1.0828267e+01   3.4901213e+01
 1.0833733e+01   3.4796914e+01
 1.0839200e+01   3.4886897e+01
 1.0844667e+01   3.4912688e+01
 1.0850133e+01   3.5051279e+01
 1.0855600e+01   3.4921258e+01
 1.0861067e+01   3.5194399e+01
 1.0866533e+01   3.5507790e+01
 1.0872000e+01   3.5875512e+01
 1.0877467e+01   3.6440068e+01
 1.0882933e+01   3.6920219e+01
 1.0888400e+01   3.7490794e+01
 1.0893867e+01   3.7887402e+01
 1.0899333e+01   3.8370795e+01
 1.0904800e+01   3.8442250e+01
 1.0910267e+01   3.8687403e+01
 1.0915733e+01   3.8238144e+01
 1.0921200e+01   3.8211911e+01
 1.0926667e+01   3.7673494e+01
 1.0932133e+01   3.7237229e+01
 1.0937600e+01   3.6784386e+01
 1.0943067e+01   3.6326353e+01
 1.0948533e+01   3.6094225e+01
 1.0954000e+01   3.5930836e+01
 1.0959467e+01   3.5560845e+01
 1.0964933e+01   3.5546234e+01
 1.0970400e+01   3.5518312e+01
 1.0975867e+01   3.5587509e+01
 1.0981333e+01   3.5415763e+01
 1.0986800e+01   3.5549122e+01
 1.0992267e+01   3.5367280e+01
 1.0997733e+01   3.5673105e+01
 1.1003200e+01   3.5480319e+01
 1.1008667e+01   3.5619857e+01
 1.1014133e+01   3.5358147e+01
 1.1019600e+01   3.6091332e+01
 1.1025067e+01   3.5375470e+01
 1.1030533e+01   3.5920761e+01
 1.1036000e+01   3.5718458e+01
 1.1041467e+01   3.5894416e+01
 1.1046933e+01   3.5867327e+01
 1.1052400e+01   3.6008287e+01
 1.1057867e+01   3.6054498e+01
 1.1063333e+01   3.6152535e+01
 1.1068800e+01   3.6375661e+01
 1.1074267e+01   3.6777187e+01
 1.1079733e+01   3.7139589e+01
 1.1085200e+01   3.8020770e+01
 1.1090667e+01   3.9378549e+01
 1.1096133e+01   4.1045475e+01
 1.1101600e+01   4.3508583e+01
 1.1107067e+01   4.6132828e+01
 1.1112533e+01   4.9336336e+01
 1.1118000e+01   5.2098389e+01
 1.1123467e+01   5.4604587e+01
 1.1128933e+01   5.5890117e+01
 1.1134400e+01   5.6822171e+01
 1.1139867e+01   5.6527340e+01
 1.1145333e+01   5.4846543e+01
 1.1150800e+01   5.2707468e+01
 1.1156267e+01   5.0035182e+01
 1.1161733e+01   4.7165241e+01
 1.1167200e+01   4.4282537e+01
 1.1172667e+01   4.1936175e+01
 1.1178133e+01   3.9925475e+01
 1.1183600e+01   3.8492543e+01
 1.1189067e+01   3.7618028e+01
 1.1194533e+01   3.6937651e+01
