PWDR ff_004562_sum_norm_dc_0.tif Azm= 352.fxye Bank 1
2-Theta Angle (Degrees)
Intensity
       1500
 3.0000000e+00   4.6501507e+01
 3.0054667e+00   4.6265768e+01
 3.0109333e+00   4.6108872e+01
 3.0164000e+00   4.5994576e+01
 3.0218667e+00   4.5793302e+01
 3.0273333e+00   4.5638819e+01
 3.0328000e+00   4.5679389e+01
 3.0382667e+00   4.5406758e+01
 3.0437333e+00   4.4922706e+01
 3.0492000e+00   4.4929939e+01
 3.0546667e+00   4.4448767e+01
 3.0601333e+00   4.4755595e+01
 3.0656000e+00   4.5619059e+01
 3.0710667e+00   4.3973045e+01
 3.0765333e+00   4.4108910e+01
 3.0820000e+00   4.3600578e+01
 3.0874667e+00   4.3130979e+01
 3.0929333e+00   4.3383311e+01
 3.0984000e+00   4.2910173e+01
 3.1038667e+00   4.2867943e+01
 3.1093333e+00   4.2495868e+01
 3.1148000e+00   4.2540468e+01
 3.1202667e+00   4.2144121e+01
 3.1257333e+00   4.2389968e+01
 3.1312000e+00   4.1839265e+01
 3.1366667e+00   4.2182641e+01
 3.1421333e+00   4.1686057e+01
 3.1476000e+00   4.1693187e+01
 3.1530667e+00   4.1861109e+01
 3.1585333e+00   4.1262311e+01
 3.1640000e+00   4.1240589e+01
 3.1694667e+00   4.1048949e+01
 3.1749333e+00   4.0988501e+01
 3.1804000e+00   4.0803065e+01
 3.1858667e+00   4.0575184e+01
 3.1913333e+00   4.0507544e+01
 3.1968000e+00   4.0416786e+01
 3.2022667e+00   4.0508615e+01
 3.2077333e+00   4.0145342e+01
 3.2132000e+00   4.0199467e+01
 3.2186667e+00   3.9985287e+01
 3.2241333e+00   3.9934687e+01
 3.2296000e+00   3.9865002e+01
 3.2350667e+00   3.9766756e+01
 3.2405333e+00   3.9494934e+01
 3.2460000e+00   3.9349358e+01
 3.2514667e+00   3.9152038e+01
 3.2569333e+00   3.9130575e+01
 3.2624000e+00   3.9040995e+01
 3.2678667e+00   3.8930249e+01
 3.2733333e+00   3.9113192e+01
 3.2788000e+00   3.8709218e+01
 3.2842667e+00   3.8696265e+01
 3.2897333e+00   3.8627560e+01
 3.2952000e+00   3.8565840e+01
 3.3006667e+00   3.8467905e+01
 3.3061333e+00   3.8420895e+01
 3.3116000e+00   3.8215841e+01
 3.3170667e+00   3.8238513e+01
 3.3225333e+00   3.8011638e+01
 3.3280000e+00   3.8146003e+01
 3.3334667e+00   3.7783773e+01
 3.3389333e+00   3.7901858e+01
 3.3444000e+00   3.7650072e+01
 3.3498667e+00   3.7888467e+01
 3.3553333e+00   3.7765584e+01
 3.3608000e+00   3.7566052e+01
 3.3662667e+00   3.7566437e+01
 3.3717333e+00   3.7437144e+01
 3.3772000e+00   3.7439899e+01
 3.3826667e+00   3.7510976e+01
 3.3881333e+00   3.7271468e+01
 3.3936000e+00   3.7422003e+01
 3.3990667e+00   3.7127526e+01
 3.4045333e+00   3.7303895e+01
 3.4100000e+00   3.7081391e+01
 3.4154667e+00   3.7088246e+01
 3.4209333e+00   3.7178016e+01
 3.4264000e+00   3.7034003e+01
 3.4318667e+00   3.6949042e+01
 3.4373333e+00   3.6987861e+01
 3.4428000e+00   3.6768034e+01
 3.4482667e+00   3.6813764e+01
 3.4537333e+00   3.6876201e+01
 3.4592000e+00   3.6680313e+01
 3.4646667e+00   3.6564640e+01
 3.4701333e+00   3.6828924e+01
 3.4756000e+00   3.6568539e+01
 3.4810667e+00   3.6808326e+01
 3.4865333e+00   3.6524869e+01
 3.4920000e+00   3.6805469e+01
 3.4974667e+00   3.6561617e+01
 3.5029333e+00   3.6797740e+01
 3.5084000e+00   3.6507028e+01
 3.5138667e+00   3.6626248e+01
 3.5193333e+00   3.6556440e+01
 3.5248000e+00   3.6603248e+01
 3.5302667e+00   3.6674902e+01
 3.5357333e+00   3.6615989e+01
 3.5412000e+00   3.6775241e+01
 3.5466667e+00   3.6776808e+01
 3.5521333e+00   3.6799766e+01
 3.5576000e+00   3.6786936e+01
 3.5630667e+00   3.6833262e+01
 3.5685333e+00   3.6820993e+01
 3.5740000e+00   3.6962771e+01
 3.5794667e+00   3.6747515e+01
 3.5849333e+00   3.6537371e+01
 3.5904000e+00   3.6490372e+01
 3.5958667e+00   3.6430515e+01
 3.6013333e+00   3.6330950e+01
 3.6068000e+00   3.6432878e+01
 3.6122667e+00   3.6420879e+01
 3.6177333e+00   3.6278250e+01
 3.6232000e+00   3.6371458e+01
 3.6286667e+00   3.6332624e+01
 3.6341333e+00   3.6452852e+01
 3.6396000e+00   3.6321755e+01
 3.6450667e+00   3.6360214e+01
 3.6505333e+00   3.6388170e+01
 3.6560000e+00   3.6410034e+01
 3.6614667e+00   3.6525920e+01
 3.6669333e+00   3.6447799e+01
 3.6724000e+00   3.6649198e+01
 3.6778667e+00   3.6537685e+01
 3.6833333e+00   3.6563241e+01
 3.6888000e+00   3.6416134e+01
 3.6942667e+00   3.6763647e+01
 3.6997333e+00   3.6458052e+01
 3.7052000e+00   3.6665110e+01
 3.7106667e+00   3.6574627e+01
 3.7161333e+00   3.6674976e+01
 3.7216000e+00   3.6690365e+01
 3.7270667e+00   3.6734169e+01
 3.7325333e+00   3.6685269e+01
 3.7380000e+00   3.6795077e+01
 3.7434667e+00   3.6649077e+01
 3.7489333e+00   3.6756789e+01
 3.7544000e+00   3.6632043e+01
 3.7598667e+00   3.6881815e+01
 3.7653333e+00   3.6728518e+01
 3.7708000e+00   3.6971556e+01
 3.7762667e+00   3.6944132e+01
 3.7817333e+00   3.6845638e+01
 3.7872000e+00   3.7051939e+01
 3.7926667e+00   3.7051116e+01
 3.7981333e+00   3.7254081e+01
 3.8036000e+00   3.7246922e+01
 3.8090667e+00   3.7344005e+01
 3.8145333e+00   3.7237886e+01
 3.8200000e+00   3.7306812e+01
 3.8254667e+00   3.7258687e+01
 3.8309333e+00   3.7398713e+01
 3.8364000e+00   3.7611999e+01
 3.8418667e+00   3.7471410e+01
 3.8473333e+00   3.7843729e+01
 3.8528000e+00   3.7658405e+01
 3.8582667e+00   3.7890707e+01
 3.8637333e+00   3.7911626e+01
 3.8692000e+00   3.7967070e+01
 3.8746667e+00   3.7918017e+01
 3.8801333e+00   3.8190398e+01
 3.8856000e+00   3.8272562e+01
 3.8910667e+00   3.8388354e+01
 3.8965333e+00   3.8531309e+01
 3.9020000e+00   3.8681165e+01
 3.9074667e+00   3.9045004e+01
 3.9129333e+00   3.9184272e+01
 3.9184000e+00   3.9391210e+01
 3.9238667e+00   3.9405560e+01
 3.9293333e+00   3.9543363e+01
 3.9348000e+00   3.9573806e+01
 3.9402667e+00   3.9651955e+01
 3.9457333e+00   3.9476593e+01
 3.9512000e+00   3.9651684e+01
 3.9566667e+00   3.9584653e+01
 3.9621333e+00   3.9848912e+01
 3.9676000e+00   3.9556884e+01
 3.9730667e+00   3.9916473e+01
 3.9785333e+00   3.9827803e+01
 3.9840000e+00   3.9948597e+01
 3.9894667e+00   4.0078216e+01
 3.9949333e+00   4.0152045e+01
 4.0004000e+00   4.0187519e+01
 4.0058667e+00   4.0343528e+01
 4.0113333e+00   4.0575539e+01
 4.0168000e+00   4.0598317e+01
 4.0222667e+00   4.0891930e+01
 4.0277333e+00   4.0998804e+01
 4.0332000e+00   4.1527136e+01
 4.0386667e+00   4.1557734e+01
 4.0441333e+00   4.2337386e+01
 4.0496000e+00   4.2887912e+01
 4.0550667e+00   4.3753184e+01
 4.0605333e+00   4.5245537e+01
 4.0660000e+00   4.9615522e+01
 4.0714667e+00   5.4094294e+01
 4.0769333e+00   6.4324885e+01
 4.0824000e+00   7.9898376e+01
 4.0878667e+00   9.8113305e+01
 4.0933333e+00   1.3022226e+02
 4.0988000e+00   1.8739896e+02
 4.1042667e+00   2.0340170e+02
 4.1097333e+00   2.4455576e+02
 4.1152000e+00   2.3713363e+02
 4.1206667e+00   2.5941124e+02
 4.1261333e+00   2.4012092e+02
 4.1316000e+00   2.3358315e+02
 4.1370667e+00   2.3096355e+02
 4.1425333e+00   2.1914085e+02
 4.1480000e+00   1.5427823e+02
 4.1534667e+00   1.3816474e+02
 4.1589333e+00   9.4375286e+01
 4.1644000e+00   6.7447443e+01
 4.1698667e+00   5.7984031e+01
 4.1753333e+00   5.1135526e+01
 4.1808000e+00   4.8002634e+01
 4.1862667e+00   4.7109003e+01
 4.1917333e+00   4.6237891e+01
 4.1972000e+00   4.5877174e+01
 4.2026667e+00   4.5681893e+01
 4.2081333e+00   4.5690385e+01
 4.2136000e+00   4.5507550e+01
 4.2190667e+00   4.5696587e+01
 4.2245333e+00   4.5272307e+01
 4.2300000e+00   4.5450428e+01
 4.2354667e+00   4.5177468e+01
 4.2409333e+00   4.5386557e+01
 4.2464000e+00   4.5276725e+01
 4.2518667e+00   4.5499463e+01
 4.2573333e+00   4.5413123e+01
 4.2628000e+00   4.5479381e+01
 4.2682667e+00   4.5843487e+01
 4.2737333e+00   4.5533779e+01
 4.2792000e+00   4.5890439e+01
 4.2846667e+00   4.5657536e+01
 4.2901333e+00   4.6198561e+01
 4.2956000e+00   4.5750191e+01
 4.3010667e+00   4.6715581e+01
 4.3065333e+00   4.6045481e+01
 4.3120000e+00   4.8631446e+01
 4.3174667e+00   4.6155835e+01
 4.3229333e+00   4.8304543e+01
 4.3284000e+00   4.6464329e+01
 4.3338667e+00   4.7351988e+01
 4.3393333e+00   4.6940901e+01
 4.3448000e+00   4.7550216e+01
 4.3502667e+00   4.7418691e+01
 4.3557333e+00   4.7686984e+01
 4.3612000e+00   4.7880277e+01
 4.3666667e+00   4.8119543e+01
 4.3721333e+00   4.8788022e+01
 4.3776000e+00   4.8586258e+01
 4.3830667e+00   4.9565548e+01
 4.3885333e+00   4.9593711e+01
 4.3940000e+00   5.1117524e+01
 4.3994667e+00   5.1572172e+01
 4.4049333e+00   5.3962030e+01
 4.4104000e+00   5.7289233e+01
 4.4158667e+00   6.4815268e+01
 4.4213333e+00   7.8914464e+01
 4.4268000e+00   9.9352619e+01
 4.4322667e+00   1.3687176e+02
 4.4377333e+00   1.7245131e+02
 4.4432000e+00   2.0445891e+02
 4.4486667e+00   2.2681650e+02
 4.4541333e+00   2.4480877e+02
 4.4596000e+00   2.7931556e+02
 4.4650667e+00   2.9191215e+02
 4.4705333e+00   3.3902146e+02
 4.4760000e+00   3.6419166e+02
 4.4814667e+00   3.2446416e+02
 4.4869333e+00   3.0441242e+02
 4.4924000e+00   1.6477352e+02
 4.4978667e+00   1.3889016e+02
 4.5033333e+00   8.5618488e+01
 4.5088000e+00   9.2570037e+01
 4.5142667e+00   1.0343446e+02
 4.5197333e+00   1.2560046e+02
 4.5252000e+00   1.5220788e+02
 4.5306667e+00   1.7963565e+02
 4.5361333e+00   1.9366950e+02
 4.5416000e+00   2.0473117e+02
 4.5470667e+00   2.1472524e+02
 4.5525333e+00   2.5882135e+02
 4.5580000e+00   2.4484057e+02
 4.5634667e+00   2.6453193e+02
 4.5689333e+00   2.9225920e+02
 4.5744000e+00   2.1324713e+02
 4.5798667e+00   2.0941903e+02
 4.5853333e+00   1.1851268e+02
 4.5908000e+00   1.0989474e+02
 4.5962667e+00   7.7177647e+01
 4.6017333e+00   7.6456103e+01
 4.6072000e+00   6.9105239e+01
 4.6126667e+00   6.9408183e+01
 4.6181333e+00   7.0971510e+01
 4.6236000e+00   7.5920571e+01
 4.6290667e+00   8.7005123e+01
 4.6345333e+00   1.1148251e+02
 4.6400000e+00   1.6334877e+02
 4.6454667e+00   2.5983542e+02
 4.6509333e+00   3.7598632e+02
 4.6564000e+00   5.0622382e+02
 4.6618667e+00   6.5376911e+02
 4.6673333e+00   7.3963427e+02
 4.6728000e+00   7.9175264e+02
 4.6782667e+00   8.3040941e+02
 4.6837333e+00   8.5214545e+02
 4.6892000e+00   8.4856825e+02
 4.6946667e+00   8.9044011e+02
 4.7001333e+00   7.2920271e+02
 4.7056000e+00   6.9119768e+02
 4.7110667e+00   4.2699392e+02
 4.7165333e+00   3.5698917e+02
 4.7220000e+00   2.0506906e+02
 4.7274667e+00   1.8193299e+02
 4.7329333e+00   1.1344552e+02
 4.7384000e+00   9.1295796e+01
 4.7438667e+00   7.6752831e+01
 4.7493333e+00   6.8923667e+01
 4.7548000e+00   6.8325785e+01
 4.7602667e+00   6.2783752e+01
 4.7657333e+00   6.5073954e+01
 4.7712000e+00   6.1188135e+01
 4.7766667e+00   6.2799692e+01
 4.7821333e+00   6.0949506e+01
 4.7876000e+00   6.1800335e+01
 4.7930667e+00   6.1328798e+01
 4.7985333e+00   6.0681505e+01
 4.8040000e+00   6.2850929e+01
 4.8094667e+00   5.8190216e+01
 4.8149333e+00   6.4487938e+01
 4.8204000e+00   5.8989323e+01
 4.8258667e+00   6.4424924e+01
 4.8313333e+00   5.9876523e+01
 4.8368000e+00   6.5322654e+01
 4.8422667e+00   6.0599045e+01
 4.8477333e+00   6.5389888e+01
 4.8532000e+00   6.2735524e+01
 4.8586667e+00   6.5421790e+01
 4.8641333e+00   6.5495697e+01
 4.8696000e+00   6.5885568e+01
 4.8750667e+00   6.8407622e+01
 4.8805333e+00   6.5518616e+01
 4.8860000e+00   7.2700963e+01
 4.8914667e+00   6.4717338e+01
 4.8969333e+00   7.6308332e+01
 4.9024000e+00   6.7436305e+01
 4.9078667e+00   7.9585072e+01
 4.9133333e+00   7.1358861e+01
 4.9188000e+00   8.4848550e+01
 4.9242667e+00   7.9423144e+01
 4.9297333e+00   9.2789705e+01
 4.9352000e+00   1.0767124e+02
 4.9406667e+00   1.1316471e+02
 4.9461333e+00   1.5181548e+02
 4.9516000e+00   1.5032802e+02
 4.9570667e+00   2.3882604e+02
 4.9625333e+00   2.3779414e+02
 4.9680000e+00   2.7479485e+02
 4.9734667e+00   3.7531528e+02
 4.9789333e+00   3.6295571e+02
 4.9844000e+00   4.6709218e+02
 4.9898667e+00   5.1363188e+02
 4.9953333e+00   5.3167029e+02
 5.0008000e+00   5.8230708e+02
 5.0062667e+00   5.7642350e+02
 5.0117333e+00   5.5409388e+02
 5.0172000e+00   4.8086484e+02
 5.0226667e+00   4.0515329e+02
 5.0281333e+00   3.9811245e+02
 5.0336000e+00   2.5668151e+02
 5.0390667e+00   2.8431057e+02
 5.0445333e+00   1.6978210e+02
 5.0500000e+00   1.9181459e+02
 5.0554667e+00   1.0432271e+02
 5.0609333e+00   1.2175936e+02
 5.0664000e+00   7.9872279e+01
 5.0718667e+00   9.8935630e+01
 5.0773333e+00   7.1437352e+01
 5.0828000e+00   8.6544026e+01
 5.0882667e+00   6.9394349e+01
 5.0937333e+00   7.7848883e+01
 5.0992000e+00   6.8419896e+01
 5.1046667e+00   7.1773806e+01
 5.1101333e+00   6.6694061e+01
 5.1156000e+00   6.7083726e+01
 5.1210667e+00   6.5084364e+01
 5.1265333e+00   6.3794517e+01
 5.1320000e+00   6.3501580e+01
 5.1374667e+00   6.1232558e+01
 5.1429333e+00   6.2154708e+01
 5.1484000e+00   5.8253398e+01
 5.1538667e+00   6.0999577e+01
 5.1593333e+00   5.4904282e+01
 5.1648000e+00   6.1027898e+01
 5.1702667e+00   5.3446379e+01
 5.1757333e+00   5.9688345e+01
 5.1812000e+00   5.2774219e+01
 5.1866667e+00   5.7255237e+01
 5.1921333e+00   5.2572620e+01
 5.1976000e+00   5.5445953e+01
 5.2030667e+00   5.1633041e+01
 5.2085333e+00   5.3927061e+01
 5.2140000e+00   5.0935601e+01
 5.2194667e+00   5.2434436e+01
 5.2249333e+00   5.0717650e+01
 5.2304000e+00   5.0768446e+01
 5.2358667e+00   5.0537381e+01
 5.2413333e+00   4.9569668e+01
 5.2468000e+00   5.0251730e+01
 5.2522667e+00   4.7443570e+01
 5.2577333e+00   5.0981907e+01
 5.2632000e+00   4.7047293e+01
 5.2686667e+00   4.9762312e+01
 5.2741333e+00   4.7028539e+01
 5.2796000e+00   4.8864946e+01
 5.2850667e+00   4.6622590e+01
 5.2905333e+00   4.8071658e+01
 5.2960000e+00   4.6128228e+01
 5.3014667e+00   4.7340931e+01
 5.3069333e+00   4.6267826e+01
 5.3124000e+00   4.6507027e+01
 5.3178667e+00   4.5882536e+01
 5.3233333e+00   4.6219781e+01
 5.3288000e+00   4.5568885e+01
 5.3342667e+00   4.5113977e+01
 5.3397333e+00   4.5682993e+01
 5.3452000e+00   4.4141179e+01
 5.3506667e+00   4.5955720e+01
 5.3561333e+00   4.3990262e+01
 5.3616000e+00   4.5426295e+01
 5.3670667e+00   4.3803694e+01
 5.3725333e+00   4.4908012e+01
 5.3780000e+00   4.3404265e+01
 5.3834667e+00   4.4373844e+01
 5.3889333e+00   4.3427216e+01
 5.3944000e+00   4.3700572e+01
 5.3998667e+00   4.3250843e+01
 5.4053333e+00   4.3521914e+01
 5.4108000e+00   4.3051405e+01
 5.4162667e+00   4.2819957e+01
 5.4217333e+00   4.2926747e+01
 5.4272000e+00   4.2430539e+01
 5.4326667e+00   4.3113877e+01
 5.4381333e+00   4.2062838e+01
 5.4436000e+00   4.3109917e+01
 5.4490667e+00   4.2079629e+01
 5.4545333e+00   4.2789114e+01
 5.4600000e+00   4.1879106e+01
 5.4654667e+00   4.2428686e+01
 5.4709333e+00   4.1600033e+01
 5.4764000e+00   4.2165572e+01
 5.4818667e+00   4.1728170e+01
 5.4873333e+00   4.2001960e+01
 5.4928000e+00   4.1648686e+01
 5.4982667e+00   4.1641898e+01
 5.5037333e+00   4.1763191e+01
 5.5092000e+00   4.1588499e+01
 5.5146667e+00   4.1814283e+01
 5.5201333e+00   4.1228518e+01
 5.5256000e+00   4.1887795e+01
 5.5310667e+00   4.0986795e+01
 5.5365333e+00   4.2202312e+01
 5.5420000e+00   4.1182402e+01
 5.5474667e+00   4.5152692e+01
 5.5529333e+00   4.1129129e+01
 5.5584000e+00   4.2796853e+01
 5.5638667e+00   4.0987524e+01
 5.5693333e+00   4.1371141e+01
 5.5748000e+00   4.0961415e+01
 5.5802667e+00   4.1024098e+01
 5.5857333e+00   4.0931169e+01
 5.5912000e+00   4.1101809e+01
 5.5966667e+00   4.0880194e+01
 5.6021333e+00   4.0871009e+01
 5.6076000e+00   4.0987218e+01
 5.6130667e+00   4.0484770e+01
 5.6185333e+00   4.1181481e+01
 5.6240000e+00   4.0679796e+01
 5.6294667e+00   4.1050636e+01
 5.6349333e+00   4.0685878e+01
 5.6404000e+00   4.1057379e+01
 5.6458667e+00   4.0646638e+01
 5.6513333e+00   4.0884532e+01
 5.6568000e+00   4.0682080e+01
 5.6622667e+00   4.0991245e+01
 5.6677333e+00   4.1012822e+01
 5.6732000e+00   4.1232711e+01
 5.6786667e+00   4.1812600e+01
 5.6841333e+00   4.3015289e+01
 5.6896000e+00   4.3265421e+01
 5.6950667e+00   4.9330280e+01
 5.7005333e+00   4.5804440e+01
 5.7060000e+00   4.9033062e+01
 5.7114667e+00   5.2464558e+01
 5.7169333e+00   6.3827702e+01
 5.7224000e+00   6.7121754e+01
 5.7278667e+00   8.1362779e+01
 5.7333333e+00   1.1621257e+02
 5.7388000e+00   1.1030527e+02
 5.7442667e+00   1.2104516e+02
 5.7497333e+00   1.5038754e+02
 5.7552000e+00   1.3672010e+02
 5.7606667e+00   1.4253642e+02
 5.7661333e+00   1.7130152e+02
 5.7716000e+00   1.5391306e+02
 5.7770667e+00   1.8303375e+02
 5.7825333e+00   1.3425812e+02
 5.7880000e+00   1.2097281e+02
 5.7934667e+00   1.1307289e+02
 5.7989333e+00   8.6546563e+01
 5.8044000e+00   9.2193020e+01
 5.8098667e+00   7.8703038e+01
 5.8153333e+00   7.1444039e+01
 5.8208000e+00   5.2860010e+01
 5.8262667e+00   4.9958293e+01
 5.8317333e+00   4.4544028e+01
 5.8372000e+00   4.2605279e+01
 5.8426667e+00   4.1500655e+01
 5.8481333e+00   4.0856672e+01
 5.8536000e+00   4.0563243e+01
 5.8590667e+00   4.0057544e+01
 5.8645333e+00   4.0310352e+01
 5.8700000e+00   3.9507656e+01
 5.8754667e+00   3.9818377e+01
 5.8809333e+00   3.9288384e+01
 5.8864000e+00   3.9453495e+01
 5.8918667e+00   3.8973833e+01
 5.8973333e+00   3.9273530e+01
 5.9028000e+00   3.8780781e+01
 5.9082667e+00   3.8985705e+01
 5.9137333e+00   3.8670704e+01
 5.9192000e+00   3.8629233e+01
 5.9246667e+00   3.8592330e+01
 5.9301333e+00   3.8636797e+01
 5.9356000e+00   3.8428201e+01
 5.9410667e+00   3.8594109e+01
 5.9465333e+00   3.8534986e+01
 5.9520000e+00   3.8413915e+01
 5.9574667e+00   3.8535515e+01
 5.9629333e+00   3.8463927e+01
 5.9684000e+00   3.8470084e+01
 5.9738667e+00   3.8453107e+01
 5.9793333e+00   3.8564825e+01
 5.9848000e+00   3.8471268e+01
 5.9902667e+00   3.8688699e+01
 5.9957333e+00   3.8808547e+01
 6.0012000e+00   3.9004993e+01
 6.0066667e+00   3.9322248e+01
 6.0121333e+00   3.9662556e+01
 6.0176000e+00   4.0733906e+01
 6.0230667e+00   4.2314269e+01
 6.0285333e+00   4.5294221e+01
 6.0340000e+00   5.2704134e+01
 6.0394667e+00   6.1200402e+01
 6.0449333e+00   7.3085842e+01
 6.0504000e+00   9.6103737e+01
 6.0558667e+00   1.1690315e+02
 6.0613333e+00   1.3810667e+02
 6.0668000e+00   1.5151588e+02
 6.0722667e+00   1.6222594e+02
 6.0777333e+00   1.5889091e+02
 6.0832000e+00   1.5625196e+02
 6.0886667e+00   1.3485176e+02
 6.0941333e+00   1.1662898e+02
 6.0996000e+00   8.4842885e+01
 6.1050667e+00   7.5602108e+01
 6.1105333e+00   6.0073356e+01
 6.1160000e+00   5.5968983e+01
 6.1214667e+00   4.8064662e+01
 6.1269333e+00   4.4622535e+01
 6.1324000e+00   4.1005332e+01
 6.1378667e+00   3.9565567e+01
 6.1433333e+00   3.8891713e+01
 6.1488000e+00   3.8520869e+01
 6.1542667e+00   3.8235484e+01
 6.1597333e+00   3.7981031e+01
 6.1652000e+00   3.7785258e+01
 6.1706667e+00   3.7577025e+01
 6.1761333e+00   3.7596804e+01
 6.1816000e+00   3.7347574e+01
 6.1870667e+00   3.7383432e+01
 6.1925333e+00   3.7266694e+01
 6.1980000e+00   3.7272259e+01
 6.2034667e+00   3.7152328e+01
 6.2089333e+00   3.7123516e+01
 6.2144000e+00   3.7009379e+01
 6.2198667e+00   3.6848553e+01
 6.2253333e+00   3.6990480e+01
 6.2308000e+00   3.6816897e+01
 6.2362667e+00   3.7101456e+01
 6.2417333e+00   3.6722003e+01
 6.2472000e+00   3.6846849e+01
 6.2526667e+00   3.6786623e+01
 6.2581333e+00   3.7059226e+01
 6.2636000e+00   3.6965879e+01
 6.2690667e+00   3.7582724e+01
 6.2745333e+00   3.7120344e+01
 6.2800000e+00   3.7283972e+01
 6.2854667e+00   3.7092514e+01
 6.2909333e+00   3.6664096e+01
 6.2964000e+00   3.6673961e+01
 6.3018667e+00   3.6678241e+01
 6.3073333e+00   3.6572765e+01
 6.3128000e+00   3.6496339e+01
 6.3182667e+00   3.6568077e+01
 6.3237333e+00   3.6523918e+01
 6.3292000e+00   3.6707241e+01
 6.3346667e+00   3.6542377e+01
 6.3401333e+00   3.6978296e+01
 6.3456000e+00   3.6303244e+01
 6.3510667e+00   3.6662500e+01
 6.3565333e+00   3.6329541e+01
 6.3620000e+00   3.6596484e+01
 6.3674667e+00   3.6513508e+01
 6.3729333e+00   3.6726808e+01
 6.3784000e+00   3.7018362e+01
 6.3838667e+00   3.7563319e+01
 6.3893333e+00   3.8234301e+01
 6.3948000e+00   3.9266648e+01
 6.4002667e+00   4.0921568e+01
 6.4057333e+00   4.2472334e+01
 6.4112000e+00   4.5325691e+01
 6.4166667e+00   5.0015608e+01
 6.4221333e+00   5.5440648e+01
 6.4276000e+00   6.2937184e+01
 6.4330667e+00   6.8454097e+01
 6.4385333e+00   6.9088933e+01
 6.4440000e+00   6.5965237e+01
 6.4494667e+00   6.1582059e+01
 6.4549333e+00   5.3995044e+01
 6.4604000e+00   4.8999644e+01
 6.4658667e+00   4.5071177e+01
 6.4713333e+00   4.1694259e+01
 6.4768000e+00   3.9818751e+01
 6.4822667e+00   3.8445647e+01
 6.4877333e+00   3.7940066e+01
 6.4932000e+00   3.7297361e+01
 6.4986667e+00   3.7100194e+01
 6.5041333e+00   3.6580407e+01
 6.5096000e+00   3.6525417e+01
 6.5150667e+00   3.6594370e+01
 6.5205333e+00   3.6169963e+01
 6.5260000e+00   3.6392984e+01
 6.5314667e+00   3.6319764e+01
 6.5369333e+00   3.6367185e+01
 6.5424000e+00   3.6167796e+01
 6.5478667e+00   3.6287429e+01
 6.5533333e+00   3.6169805e+01
 6.5588000e+00   3.6230427e+01
 6.5642667e+00   3.6086609e+01
 6.5697333e+00   3.6186973e+01
 6.5752000e+00   3.6124173e+01
 6.5806667e+00   3.6281311e+01
 6.5861333e+00   3.6102553e+01
 6.5916000e+00   3.6059571e+01
 6.5970667e+00   3.6197830e+01
 6.6025333e+00   3.6106018e+01
 6.6080000e+00   3.6239939e+01
 6.6134667e+00   3.6085636e+01
 6.6189333e+00   3.6290085e+01
 6.6244000e+00   3.6042569e+01
 6.6298667e+00   3.6265944e+01
 6.6353333e+00   3.6146568e+01
 6.6408000e+00   3.6258201e+01
 6.6462667e+00   3.6285279e+01
 6.6517333e+00   3.6385780e+01
 6.6572000e+00   3.6277728e+01
 6.6626667e+00   3.6381916e+01
 6.6681333e+00   3.6150115e+01
 6.6736000e+00   3.6363379e+01
 6.6790667e+00   3.6199712e+01
 6.6845333e+00   3.6675839e+01
 6.6900000e+00   3.6166657e+01
 6.6954667e+00   3.6546112e+01
 6.7009333e+00   3.6298350e+01
 6.7064000e+00   3.6564695e+01
 6.7118667e+00   3.6512032e+01
 6.7173333e+00   3.6437981e+01
 6.7228000e+00   3.6598524e+01
 6.7282667e+00   3.6514249e+01
 6.7337333e+00   3.6622744e+01
 6.7392000e+00   3.6553431e+01
 6.7446667e+00   3.6609564e+01
 6.7501333e+00   3.6738066e+01
 6.7556000e+00   3.6749411e+01
 6.7610667e+00   3.6657911e+01
 6.7665333e+00   3.6763862e+01
 6.7720000e+00   3.6715532e+01
 6.7774667e+00   3.6806585e+01
 6.7829333e+00   3.6930277e+01
 6.7884000e+00   3.7018008e+01
 6.7938667e+00   3.7013370e+01
 6.7993333e+00   3.7025292e+01
 6.8048000e+00   3.7028501e+01
 6.8102667e+00   3.7058849e+01
 6.8157333e+00   3.7133932e+01
 6.8212000e+00   3.7006041e+01
 6.8266667e+00   3.7158359e+01
 6.8321333e+00   3.7120700e+01
 6.8376000e+00   3.7239292e+01
 6.8430667e+00   3.7255024e+01
 6.8485333e+00   3.7309279e+01
 6.8540000e+00   3.7296082e+01
 6.8594667e+00   3.7402421e+01
 6.8649333e+00   3.7546592e+01
 6.8704000e+00   3.7362576e+01
 6.8758667e+00   3.7589905e+01
 6.8813333e+00   3.7582489e+01
 6.8868000e+00   3.7697016e+01
 6.8922667e+00   3.7679469e+01
 6.8977333e+00   3.7736326e+01
 6.9032000e+00   3.7756388e+01
 6.9086667e+00   3.7971488e+01
 6.9141333e+00   3.7842145e+01
 6.9196000e+00   3.7996133e+01
 6.9250667e+00   3.7997362e+01
 6.9305333e+00   3.8110853e+01
 6.9360000e+00   3.8152163e+01
 6.9414667e+00   3.8420794e+01
 6.9469333e+00   3.8236075e+01
 6.9524000e+00   3.8574690e+01
 6.9578667e+00   3.8478063e+01
 6.9633333e+00   3.8583581e+01
 6.9688000e+00   3.8719140e+01
 6.9742667e+00   3.8714410e+01
 6.9797333e+00   3.8779900e+01
 6.9852000e+00   3.8896744e+01
 6.9906667e+00   3.9056688e+01
 6.9961333e+00   3.9250359e+01
 7.0016000e+00   3.9373137e+01
 7.0070667e+00   3.9576795e+01
 7.0125333e+00   3.9583979e+01
 7.0180000e+00   3.9665437e+01
 7.0234667e+00   4.0378995e+01
 7.0289333e+00   3.9747259e+01
 7.0344000e+00   4.1852835e+01
 7.0398667e+00   4.0194845e+01
 7.0453333e+00   4.1004935e+01
 7.0508000e+00   4.0546479e+01
 7.0562667e+00   4.0871615e+01
 7.0617333e+00   4.0903173e+01
 7.0672000e+00   4.1280759e+01
 7.0726667e+00   4.1895617e+01
 7.0781333e+00   4.2970698e+01
 7.0836000e+00   4.3373413e+01
 7.0890667e+00   4.7050291e+01
 7.0945333e+00   5.0813880e+01
 7.1000000e+00   5.3781886e+01
 7.1054667e+00   6.7056925e+01
 7.1109333e+00   7.5471994e+01
 7.1164000e+00   9.3040712e+01
 7.1218667e+00   1.1059695e+02
 7.1273333e+00   1.3295359e+02
 7.1328000e+00   1.6556710e+02
 7.1382667e+00   1.9942740e+02
 7.1437333e+00   1.7843090e+02
 7.1492000e+00   2.0077369e+02
 7.1546667e+00   1.6419122e+02
 7.1601333e+00   1.2002092e+02
 7.1656000e+00   1.0086231e+02
 7.1710667e+00   8.3712519e+01
 7.1765333e+00   6.7741094e+01
 7.1820000e+00   6.0552565e+01
 7.1874667e+00   5.2802939e+01
 7.1929333e+00   4.7687150e+01
 7.1984000e+00   4.4882457e+01
 7.2038667e+00   4.3570492e+01
 7.2093333e+00   4.2630342e+01
 7.2148000e+00   4.2463800e+01
 7.2202667e+00   4.1918525e+01
 7.2257333e+00   4.1742434e+01
 7.2312000e+00   4.1597343e+01
 7.2366667e+00   4.1482253e+01
 7.2421333e+00   4.1232213e+01
 7.2476000e+00   4.1226004e+01
 7.2530667e+00   4.1215138e+01
 7.2585333e+00   4.0929058e+01
 7.2640000e+00   4.1078502e+01
 7.2694667e+00   4.0924385e+01
 7.2749333e+00   4.0921687e+01
 7.2804000e+00   4.0892977e+01
 7.2858667e+00   4.1064535e+01
 7.2913333e+00   4.0884547e+01
 7.2968000e+00   4.0912631e+01
 7.3022667e+00   4.0925721e+01
 7.3077333e+00   4.0699963e+01
 7.3132000e+00   4.0928479e+01
 7.3186667e+00   4.0705574e+01
 7.3241333e+00   4.0827088e+01
 7.3296000e+00   4.0601095e+01
 7.3350667e+00   4.0890481e+01
 7.3405333e+00   4.0809440e+01
 7.3460000e+00   4.0832220e+01
 7.3514667e+00   4.0642195e+01
 7.3569333e+00   4.0726836e+01
 7.3624000e+00   4.0611152e+01
 7.3678667e+00   4.0847643e+01
 7.3733333e+00   4.0626301e+01
 7.3788000e+00   4.0778406e+01
 7.3842667e+00   4.0698809e+01
 7.3897333e+00   4.0718577e+01
 7.3952000e+00   4.0699265e+01
 7.4006667e+00   4.0686260e+01
 7.4061333e+00   4.0711720e+01
 7.4116000e+00   4.0863463e+01
 7.4170667e+00   4.0800108e+01
 7.4225333e+00   4.0767645e+01
 7.4280000e+00   4.0850664e+01
 7.4334667e+00   4.0821210e+01
 7.4389333e+00   4.0868222e+01
 7.4444000e+00   4.0906887e+01
 7.4498667e+00   4.0888355e+01
 7.4553333e+00   4.0903874e+01
 7.4608000e+00   4.0831519e+01
 7.4662667e+00   4.1109981e+01
 7.4717333e+00   4.1089338e+01
 7.4772000e+00   4.1067371e+01
 7.4826667e+00   4.1116600e+01
 7.4881333e+00   4.1129948e+01
 7.4936000e+00   4.1157166e+01
 7.4990667e+00   4.1169247e+01
 7.5045333e+00   4.1095561e+01
 7.5100000e+00   4.1317261e+01
 7.5154667e+00   4.1254110e+01
 7.5209333e+00   4.1522241e+01
 7.5264000e+00   4.1195708e+01
 7.5318667e+00   4.1506901e+01
 7.5373333e+00   4.1219457e+01
 7.5428000e+00   4.1356241e+01
 7.5482667e+00   4.1527589e+01
 7.5537333e+00   4.1502355e+01
 7.5592000e+00   4.1445996e+01
 7.5646667e+00   4.1589840e+01
 7.5701333e+00   4.1606777e+01
 7.5756000e+00   4.1609955e+01
 7.5810667e+00   4.1688965e+01
 7.5865333e+00   4.1803442e+01
 7.5920000e+00   4.1810704e+01
 7.5974667e+00   4.1836878e+01
 7.6029333e+00   4.1935014e+01
 7.6084000e+00   4.1824035e+01
 7.6138667e+00   4.2123674e+01
 7.6193333e+00   4.1969843e+01
 7.6248000e+00   4.2169498e+01
 7.6302667e+00   4.2122411e+01
 7.6357333e+00   4.2292690e+01
 7.6412000e+00   4.2159758e+01
 7.6466667e+00   4.2435744e+01
 7.6521333e+00   4.2367632e+01
 7.6576000e+00   4.2427787e+01
 7.6630667e+00   4.2608951e+01
 7.6685333e+00   4.2722095e+01
 7.6740000e+00   4.2579777e+01
 7.6794667e+00   4.2907479e+01
 7.6849333e+00   4.2745660e+01
 7.6904000e+00   4.2939730e+01
 7.6958667e+00   4.3057060e+01
 7.7013333e+00   4.3202608e+01
 7.7068000e+00   4.3211280e+01
 7.7122667e+00   4.3270709e+01
 7.7177333e+00   4.3515443e+01
 7.7232000e+00   4.3333026e+01
 7.7286667e+00   4.3773056e+01
 7.7341333e+00   4.3570289e+01
 7.7396000e+00   4.3990766e+01
 7.7450667e+00   4.3944391e+01
 7.7505333e+00   4.4363175e+01
 7.7560000e+00   4.4126417e+01
 7.7614667e+00   4.4570938e+01
 7.7669333e+00   4.4753772e+01
 7.7724000e+00   4.5022075e+01
 7.7778667e+00   4.5102117e+01
 7.7833333e+00   4.5516556e+01
 7.7888000e+00   4.5945050e+01
 7.7942667e+00   4.6129030e+01
 7.7997333e+00   4.7338331e+01
 7.8052000e+00   5.0606675e+01
 7.8106667e+00   4.8244247e+01
 7.8161333e+00   5.3089460e+01
 7.8216000e+00   5.4346140e+01
 7.8270667e+00   5.9447337e+01
 7.8325333e+00   6.9943219e+01
 7.8380000e+00   8.5112876e+01
 7.8434667e+00   1.0318947e+02
 7.8489333e+00   1.2394159e+02
 7.8544000e+00   1.4089149e+02
 7.8598667e+00   1.5999248e+02
 7.8653333e+00   1.7560101e+02
 7.8708000e+00   1.8712286e+02
 7.8762667e+00   1.8466670e+02
 7.8817333e+00   1.7928549e+02
 7.8872000e+00   1.5502815e+02
 7.8926667e+00   1.2684354e+02
 7.8981333e+00   1.1249166e+02
 7.9036000e+00   9.6832985e+01
 7.9090667e+00   8.4462713e+01
 7.9145333e+00   7.5012874e+01
 7.9200000e+00   6.4234674e+01
 7.9254667e+00   5.8272679e+01
 7.9309333e+00   5.4925730e+01
 7.9364000e+00   5.2889283e+01
 7.9418667e+00   5.0431409e+01
 7.9473333e+00   4.9629301e+01
 7.9528000e+00   4.8512643e+01
 7.9582667e+00   4.8100086e+01
 7.9637333e+00   4.7794214e+01
 7.9692000e+00   4.7760943e+01
 7.9746667e+00   4.7259117e+01
 7.9801333e+00   4.7501849e+01
 7.9856000e+00   4.6985256e+01
 7.9910667e+00   4.7335621e+01
 7.9965333e+00   4.7281416e+01
 8.0020000e+00   4.7376247e+01
 8.0074667e+00   4.7146829e+01
 8.0129333e+00   4.7387339e+01
 8.0184000e+00   4.7545889e+01
 8.0238667e+00   4.7316745e+01
 8.0293333e+00   4.7833326e+01
 8.0348000e+00   4.7548633e+01
 8.0402667e+00   4.8031692e+01
 8.0457333e+00   4.7707349e+01
 8.0512000e+00   4.8411993e+01
 8.0566667e+00   4.7920073e+01
 8.0621333e+00   4.8551473e+01
 8.0676000e+00   4.8507307e+01
 8.0730667e+00   4.8946180e+01
 8.0785333e+00   4.9379526e+01
 8.0840000e+00   4.9788487e+01
 8.0894667e+00   5.0660250e+01
 8.0949333e+00   5.1332818e+01
 8.1004000e+00   5.5079124e+01
 8.1058667e+00   5.7565638e+01
 8.1113333e+00   6.9857029e+01
 8.1168000e+00   7.2154148e+01
 8.1222667e+00   8.7590940e+01
 8.1277333e+00   9.0518520e+01
 8.1332000e+00   1.1957865e+02
 8.1386667e+00   1.2828448e+02
 8.1441333e+00   1.6339501e+02
 8.1496000e+00   1.4069849e+02
 8.1550667e+00   1.5460933e+02
 8.1605333e+00   1.2596982e+02
 8.1660000e+00   1.4523468e+02
 8.1714667e+00   1.2208786e+02
 8.1769333e+00   1.5742979e+02
 8.1824000e+00   1.2470044e+02
 8.1878667e+00   1.8675285e+02
 8.1933333e+00   1.4545152e+02
 8.1988000e+00   1.3693925e+02
 8.2042667e+00   1.4043594e+02
 8.2097333e+00   1.0238798e+02
 8.2152000e+00   1.2590142e+02
 8.2206667e+00   7.4257404e+01
 8.2261333e+00   8.8796153e+01
 8.2316000e+00   6.4007351e+01
 8.2370667e+00   6.6682238e+01
 8.2425333e+00   6.3118339e+01
 8.2480000e+00   6.3613599e+01
 8.2534667e+00   6.2029989e+01
 8.2589333e+00   6.1714059e+01
 8.2644000e+00   5.9164299e+01
 8.2698667e+00   5.7202423e+01
 8.2753333e+00   5.4252591e+01
 8.2808000e+00   5.3066373e+01
 8.2862667e+00   5.1457270e+01
 8.2917333e+00   5.1143593e+01
 8.2972000e+00   5.0343221e+01
 8.3026667e+00   5.0220417e+01
 8.3081333e+00   4.9820287e+01
 8.3136000e+00   4.9893339e+01
 8.3190667e+00   4.9552526e+01
 8.3245333e+00   4.9776439e+01
 8.3300000e+00   4.9751387e+01
 8.3354667e+00   4.9845672e+01
 8.3409333e+00   4.9825208e+01
 8.3464000e+00   5.0031294e+01
 8.3518667e+00   5.0300115e+01
 8.3573333e+00   5.0596784e+01
 8.3628000e+00   5.1801542e+01
 8.3682667e+00   5.2582249e+01
 8.3737333e+00   5.5991497e+01
 8.3792000e+00   6.0109661e+01
 8.3846667e+00   6.8644566e+01
 8.3901333e+00   8.0329290e+01
 8.3956000e+00   1.0427057e+02
 8.4010667e+00   1.1456274e+02
 8.4065333e+00   1.3648264e+02
 8.4120000e+00   1.4030284e+02
 8.4174667e+00   1.4829367e+02
 8.4229333e+00   1.5112406e+02
 8.4284000e+00   1.4950242e+02
 8.4338667e+00   1.4397770e+02
 8.4393333e+00   1.3391467e+02
 8.4448000e+00   1.1909812e+02
 8.4502667e+00   1.0188005e+02
 8.4557333e+00   8.6763724e+01
 8.4612000e+00   7.2581338e+01
 8.4666667e+00   6.5936371e+01
 8.4721333e+00   5.7771497e+01
 8.4776000e+00   5.5396965e+01
 8.4830667e+00   5.2801132e+01
 8.4885333e+00   5.3117836e+01
 8.4940000e+00   5.2882697e+01
 8.4994667e+00   5.5740640e+01
 8.5049333e+00   5.8608811e+01
 8.5104000e+00   6.5586802e+01
 8.5158667e+00   7.2546337e+01
 8.5213333e+00   8.7694956e+01
 8.5268000e+00   9.1376164e+01
 8.5322667e+00   1.0370523e+02
 8.5377333e+00   1.0764991e+02
 8.5432000e+00   1.1423099e+02
 8.5486667e+00   1.1348153e+02
 8.5541333e+00   1.1013652e+02
 8.5596000e+00   9.9928806e+01
 8.5650667e+00   8.8974519e+01
 8.5705333e+00   7.7442492e+01
 8.5760000e+00   6.7539748e+01
 8.5814667e+00   6.0855577e+01
 8.5869333e+00   5.5857156e+01
 8.5924000e+00   5.3207232e+01
 8.5978667e+00   5.0783123e+01
 8.6033333e+00   4.9540366e+01
 8.6088000e+00   4.8382665e+01
 8.6142667e+00   4.8152185e+01
 8.6197333e+00   4.7457465e+01
 8.6252000e+00   4.7547702e+01
 8.6306667e+00   4.7001386e+01
 8.6361333e+00   4.6906949e+01
 8.6416000e+00   4.6846266e+01
 8.6470667e+00   4.6718771e+01
 8.6525333e+00   4.6457876e+01
 8.6580000e+00   4.6301321e+01
 8.6634667e+00   4.6109906e+01
 8.6689333e+00   4.5971041e+01
 8.6744000e+00   4.5990248e+01
 8.6798667e+00   4.5612667e+01
 8.6853333e+00   4.5754204e+01
 8.6908000e+00   4.5321901e+01
 8.6962667e+00   4.5465052e+01
 8.7017333e+00   4.5073210e+01
 8.7072000e+00   4.5386770e+01
 8.7126667e+00   4.4958508e+01
 8.7181333e+00   4.5189646e+01
 8.7236000e+00   4.4781247e+01
 8.7290667e+00   4.5235445e+01
 8.7345333e+00   4.4426958e+01
 8.7400000e+00   4.4871966e+01
 8.7454667e+00   4.4693106e+01
 8.7509333e+00   4.4782551e+01
 8.7564000e+00   4.4516084e+01
 8.7618667e+00   4.4618843e+01
 8.7673333e+00   4.4263104e+01
 8.7728000e+00   4.4295878e+01
 8.7782667e+00   4.4285480e+01
 8.7837333e+00   4.4247318e+01
 8.7892000e+00   4.4063170e+01
 8.7946667e+00   4.3970976e+01
 8.8001333e+00   4.3963177e+01
 8.8056000e+00   4.3769042e+01
 8.8110667e+00   4.3794489e+01
 8.8165333e+00   4.3641362e+01
 8.8220000e+00   4.3813573e+01
 8.8274667e+00   4.3546281e+01
 8.8329333e+00   4.3623792e+01
 8.8384000e+00   4.3387520e+01
 8.8438667e+00   4.3519975e+01
 8.8493333e+00   4.3340392e+01
 8.8548000e+00   4.3488620e+01
 8.8602667e+00   4.3281648e+01
 8.8657333e+00   4.3515378e+01
 8.8712000e+00   4.3098410e+01
 8.8766667e+00   4.3431303e+01
 8.8821333e+00   4.3498473e+01
 8.8876000e+00   4.4088699e+01
 8.8930667e+00   4.4464624e+01
 8.8985333e+00   4.5608199e+01
 8.9040000e+00   4.7079362e+01
 8.9094667e+00   4.9353064e+01
 8.9149333e+00   5.2073826e+01
 8.9204000e+00   5.3951347e+01
 8.9258667e+00   5.5008801e+01
 8.9313333e+00   5.2767509e+01
 8.9368000e+00   5.3391631e+01
 8.9422667e+00   5.1841593e+01
 8.9477333e+00   5.2777567e+01
 8.9532000e+00   5.3719826e+01
 8.9586667e+00   5.1690456e+01
 8.9641333e+00   4.8311769e+01
 8.9696000e+00   4.5434863e+01
 8.9750667e+00   4.4085599e+01
 8.9805333e+00   4.3183206e+01
 8.9860000e+00   4.2828383e+01
 8.9914667e+00   4.2427109e+01
 8.9969333e+00   4.2087080e+01
 9.0024000e+00   4.1932378e+01
 9.0078667e+00   4.1762370e+01
 9.0133333e+00   4.1598189e+01
 9.0188000e+00   4.1511618e+01
 9.0242667e+00   4.1444037e+01
 9.0297333e+00   4.1342422e+01
 9.0352000e+00   4.1343390e+01
 9.0406667e+00   4.1271949e+01
 9.0461333e+00   4.1270058e+01
 9.0516000e+00   4.1259612e+01
 9.0570667e+00   4.1066887e+01
 9.0625333e+00   4.1364522e+01
 9.0680000e+00   4.1275706e+01
 9.0734667e+00   4.1778823e+01
 9.0789333e+00   4.1903197e+01
 9.0844000e+00   4.2742309e+01
 9.0898667e+00   4.3462336e+01
 9.0953333e+00   4.4346421e+01
 9.1008000e+00   4.5471610e+01
 9.1062667e+00   4.5735888e+01
 9.1117333e+00   4.5661640e+01
 9.1172000e+00   4.5295590e+01
 9.1226667e+00   4.5361487e+01
 9.1281333e+00   4.5074286e+01
 9.1336000e+00   4.4784092e+01
 9.1390667e+00   4.4278130e+01
 9.1445333e+00   4.3040703e+01
 9.1500000e+00   4.1945414e+01
 9.1554667e+00   4.1357725e+01
 9.1609333e+00   4.0612695e+01
 9.1664000e+00   4.0642484e+01
 9.1718667e+00   4.0257102e+01
 9.1773333e+00   4.0233296e+01
 9.1828000e+00   3.9950137e+01
 9.1882667e+00   3.9978561e+01
 9.1937333e+00   3.9520269e+01
 9.1992000e+00   3.9990436e+01
 9.2046667e+00   3.9535009e+01
 9.2101333e+00   3.9889801e+01
 9.2156000e+00   3.9278000e+01
 9.2210667e+00   3.9804703e+01
 9.2265333e+00   3.9181817e+01
 9.2320000e+00   3.9789001e+01
 9.2374667e+00   3.9125274e+01
 9.2429333e+00   3.9561917e+01
 9.2484000e+00   3.9148285e+01
 9.2538667e+00   3.9469383e+01
 9.2593333e+00   3.9100355e+01
 9.2648000e+00   3.9473624e+01
 9.2702667e+00   3.9094196e+01
 9.2757333e+00   3.9471597e+01
 9.2812000e+00   3.9205959e+01
 9.2866667e+00   3.9334775e+01
 9.2921333e+00   3.9377708e+01
 9.2976000e+00   3.9240646e+01
 9.3030667e+00   3.9953498e+01
 9.3085333e+00   3.9614497e+01
 9.3140000e+00   3.9196476e+01
 9.3194667e+00   3.9488490e+01
 9.3249333e+00   3.9498081e+01
 9.3304000e+00   4.0015915e+01
 9.3358667e+00   4.0463908e+01
 9.3413333e+00   4.1569097e+01
 9.3468000e+00   4.3079562e+01
 9.3522667e+00   4.5354313e+01
 9.3577333e+00   4.6893723e+01
 9.3632000e+00   4.9808120e+01
 9.3686667e+00   5.0782466e+01
 9.3741333e+00   5.1171833e+01
 9.3796000e+00   5.0850859e+01
 9.3850667e+00   5.0167968e+01
 9.3905333e+00   4.9641739e+01
 9.3960000e+00   4.9530313e+01
 9.4014667e+00   4.8365835e+01
 9.4069333e+00   4.6953438e+01
 9.4124000e+00   4.4314724e+01
 9.4178667e+00   4.3022522e+01
 9.4233333e+00   4.1282550e+01
 9.4288000e+00   4.0617746e+01
 9.4342667e+00   3.9687085e+01
 9.4397333e+00   3.9522390e+01
 9.4452000e+00   3.9192874e+01
 9.4506667e+00   3.9180054e+01
 9.4561333e+00   3.9087856e+01
 9.4616000e+00   3.9007222e+01
 9.4670667e+00   3.9305133e+01
 9.4725333e+00   3.9081802e+01
 9.4780000e+00   3.9234886e+01
 9.4834667e+00   3.9262101e+01
 9.4889333e+00   3.9209544e+01
 9.4944000e+00   3.9664960e+01
 9.4998667e+00   3.9430213e+01
 9.5053333e+00   4.0167859e+01
 9.5108000e+00   4.0292742e+01
 9.5162667e+00   4.1040318e+01
 9.5217333e+00   4.2680275e+01
 9.5272000e+00   4.6505672e+01
 9.5326667e+00   4.6506108e+01
 9.5381333e+00   5.1597209e+01
 9.5436000e+00   6.2243902e+01
 9.5490667e+00   7.5091946e+01
 9.5545333e+00   8.4889096e+01
 9.5600000e+00   8.4277430e+01
 9.5654667e+00   1.0099994e+02
 9.5709333e+00   9.8667364e+01
 9.5764000e+00   9.6060685e+01
 9.5818667e+00   1.0349537e+02
 9.5873333e+00   8.9904496e+01
 9.5928000e+00   9.4942835e+01
 9.5982667e+00   8.7823139e+01
 9.6037333e+00   8.3175052e+01
 9.6092000e+00   7.5094169e+01
 9.6146667e+00   8.6069412e+01
 9.6201333e+00   8.0879043e+01
 9.6256000e+00   7.7944366e+01
 9.6310667e+00   6.8839317e+01
 9.6365333e+00   5.9814962e+01
 9.6420000e+00   4.8533511e+01
 9.6474667e+00   4.3864471e+01
 9.6529333e+00   4.0852600e+01
 9.6584000e+00   3.9761026e+01
 9.6638667e+00   3.9393110e+01
 9.6693333e+00   3.8593523e+01
 9.6748000e+00   3.8766655e+01
 9.6802667e+00   3.8239866e+01
 9.6857333e+00   3.8404727e+01
 9.6912000e+00   3.8028432e+01
 9.6966667e+00   3.8065363e+01
 9.7021333e+00   3.8025467e+01
 9.7076000e+00   3.7761345e+01
 9.7130667e+00   3.7860471e+01
 9.7185333e+00   3.7416220e+01
 9.7240000e+00   3.7684273e+01
 9.7294667e+00   3.7451656e+01
 9.7349333e+00   3.7403004e+01
 9.7404000e+00   3.7310329e+01
 9.7458667e+00   3.7326888e+01
 9.7513333e+00   3.7098769e+01
 9.7568000e+00   3.7085156e+01
 9.7622667e+00   3.7072720e+01
 9.7677333e+00   3.7043806e+01
 9.7732000e+00   3.6964510e+01
 9.7786667e+00   3.6853325e+01
 9.7841333e+00   3.7059845e+01
 9.7896000e+00   3.6969646e+01
 9.7950667e+00   3.7317511e+01
 9.8005333e+00   3.7699171e+01
 9.8060000e+00   3.8236630e+01
 9.8114667e+00   3.9378140e+01
 9.8169333e+00   4.0615329e+01
 9.8224000e+00   4.2656291e+01
 9.8278667e+00   4.4282434e+01
 9.8333333e+00   4.6695367e+01
 9.8388000e+00   4.8493400e+01
 9.8442667e+00   4.9292650e+01
 9.8497333e+00   4.9409758e+01
 9.8552000e+00   4.8036081e+01
 9.8606667e+00   4.6800176e+01
 9.8661333e+00   4.4658896e+01
 9.8716000e+00   4.2927591e+01
 9.8770667e+00   4.1335354e+01
 9.8825333e+00   4.0011943e+01
 9.8880000e+00   3.8812100e+01
 9.8934667e+00   3.8438926e+01
 9.8989333e+00   3.7833756e+01
 9.9044000e+00   3.7836587e+01
 9.9098667e+00   3.7791767e+01
 9.9153333e+00   3.7850287e+01
 9.9208000e+00   3.8000288e+01
 9.9262667e+00   3.7981681e+01
 9.9317333e+00   3.8255480e+01
 9.9372000e+00   3.8665863e+01
 9.9426667e+00   3.9263343e+01
 9.9481333e+00   4.0046334e+01
 9.9536000e+00   4.6968046e+01
 9.9590667e+00   4.6799099e+01
 9.9645333e+00   4.9532191e+01
 9.9700000e+00   5.8037930e+01
 9.9754667e+00   5.6418500e+01
 9.9809333e+00   7.6341562e+01
 9.9864000e+00   8.0752931e+01
 9.9918667e+00   8.8160598e+01
 9.9973333e+00   1.0048034e+02
 1.0002800e+01   1.0008516e+02
 1.0008267e+01   1.1921408e+02
 1.0013733e+01   8.9708891e+01
 1.0019200e+01   1.1981771e+02
 1.0024667e+01   9.9911347e+01
 1.0030133e+01   9.3257883e+01
 1.0035600e+01   8.0929527e+01
 1.0041067e+01   8.3907975e+01
 1.0046533e+01   6.9369408e+01
 1.0052000e+01   6.9274239e+01
 1.0057467e+01   6.2010110e+01
 1.0062933e+01   5.2873118e+01
 1.0068400e+01   6.2645971e+01
 1.0073867e+01   4.5422954e+01
 1.0079333e+01   5.5855857e+01
 1.0084800e+01   4.1401410e+01
 1.0090267e+01   4.3154618e+01
 1.0095733e+01   3.8998579e+01
 1.0101200e+01   3.9658892e+01
 1.0106667e+01   3.8010626e+01
 1.0112133e+01   3.8141983e+01
 1.0117600e+01   3.7359646e+01
 1.0123067e+01   3.7459425e+01
 1.0128533e+01   3.7503859e+01
 1.0134000e+01   3.7662675e+01
 1.0139467e+01   3.7897237e+01
 1.0144933e+01   3.7398234e+01
 1.0150400e+01   3.7626562e+01
 1.0155867e+01   3.7362031e+01
 1.0161333e+01   3.7959797e+01
 1.0166800e+01   3.8379940e+01
 1.0172267e+01   3.9171263e+01
 1.0177733e+01   4.0175298e+01
 1.0183200e+01   4.0733613e+01
 1.0188667e+01   4.1859141e+01
 1.0194133e+01   4.2105704e+01
 1.0199600e+01   4.2135108e+01
 1.0205067e+01   4.1916510e+01
 1.0210533e+01   4.1663120e+01
 1.0216000e+01   4.0560898e+01
 1.0221467e+01   4.0110709e+01
 1.0226933e+01   3.8417545e+01
 1.0232400e+01   3.7994494e+01
 1.0237867e+01   3.6680971e+01
 1.0243333e+01   3.6357760e+01
 1.0248800e+01   3.5292059e+01
 1.0254267e+01   3.5214146e+01
 1.0259733e+01   3.4645986e+01
 1.0265200e+01   3.4662565e+01
 1.0270667e+01   3.4360208e+01
 1.0276133e+01   3.4477193e+01
 1.0281600e+01   3.4174849e+01
 1.0287067e+01   3.4206858e+01
 1.0292533e+01   3.4110950e+01
 1.0298000e+01   3.4079461e+01
 1.0303467e+01   3.3901288e+01
 1.0308933e+01   3.4003223e+01
 1.0314400e+01   3.3915286e+01
 1.0319867e+01   3.3857365e+01
 1.0325333e+01   3.3819407e+01
 1.0330800e+01   3.3792506e+01
 1.0336267e+01   3.3629709e+01
 1.0341733e+01   3.3682086e+01
 1.0347200e+01   3.3683663e+01
 1.0352667e+01   3.3601637e+01
 1.0358133e+01   3.3478359e+01
 1.0363600e+01   3.3694418e+01
 1.0369067e+01   3.3442309e+01
 1.0374533e+01   3.3569784e+01
 1.0380000e+01   3.3447208e+01
 1.0385467e+01   3.3589936e+01
 1.0390933e+01   3.3420628e+01
 1.0396400e+01   3.3392285e+01
 1.0401867e+01   3.3502628e+01
 1.0407333e+01   3.3397987e+01
 1.0412800e+01   3.3403729e+01
 1.0418267e+01   3.3536706e+01
 1.0423733e+01   3.3923328e+01
 1.0429200e+01   3.3299595e+01
 1.0434667e+01   3.3714416e+01
 1.0440133e+01   3.3309203e+01
 1.0445600e+01   3.3367786e+01
 1.0451067e+01   3.3243283e+01
 1.0456533e+01   3.3289465e+01
 1.0462000e+01   3.3228115e+01
 1.0467467e+01   3.3332496e+01
 1.0472933e+01   3.3191824e+01
 1.0478400e+01   3.3307836e+01
 1.0483867e+01   3.3300043e+01
 1.0489333e+01   3.3282987e+01
 1.0494800e+01   3.3328268e+01
 1.0500267e+01   3.3232914e+01
 1.0505733e+01   3.3559251e+01
 1.0511200e+01   3.3336206e+01
 1.0516667e+01   3.3490533e+01
 1.0522133e+01   3.3468365e+01
 1.0527600e+01   3.3400473e+01
 1.0533067e+01   3.3439114e+01
 1.0538533e+01   3.3598913e+01
 1.0544000e+01   3.3515745e+01
 1.0549467e+01   3.3681006e+01
 1.0554933e+01   3.3605156e+01
 1.0560400e+01   3.3558744e+01
 1.0565867e+01   3.3697238e+01
 1.0571333e+01   3.3926098e+01
 1.0576800e+01   3.4115695e+01
 1.0582267e+01   3.4597841e+01
 1.0587733e+01   3.5176638e+01
 1.0593200e+01   3.6619938e+01
 1.0598667e+01   3.7896257e+01
 1.0604133e+01   4.0926920e+01
 1.0609600e+01   4.2926152e+01
 1.0615067e+01   4.6970410e+01
 1.0620533e+01   5.0318838e+01
 1.0626000e+01   5.3538465e+01
 1.0631467e+01   5.5040734e+01
 1.0636933e+01   5.6410685e+01
 1.0642400e+01   5.2782988e+01
 1.0647867e+01   5.1153306e+01
 1.0653333e+01   4.6675134e+01
 1.0658800e+01   4.3144010e+01
 1.0664267e+01   3.9829149e+01
 1.0669733e+01   3.7700079e+01
 1.0675200e+01   3.6230102e+01
 1.0680667e+01   3.5333114e+01
 1.0686133e+01   3.4674060e+01
 1.0691600e+01   3.4216321e+01
 1.0697067e+01   3.4054829e+01
 1.0702533e+01   3.3807285e+01
 1.0708000e+01   3.3807783e+01
 1.0713467e+01   3.3527893e+01
 1.0718933e+01   3.3729455e+01
 1.0724400e+01   3.3555228e+01
 1.0729867e+01   3.3394049e+01
 1.0735333e+01   3.3627642e+01
 1.0740800e+01   3.3378523e+01
 1.0746267e+01   3.3428970e+01
 1.0751733e+01   3.3453931e+01
 1.0757200e+01   3.3408930e+01
 1.0762667e+01   3.3447809e+01
 1.0768133e+01   3.3434568e+01
 1.0773600e+01   3.3358409e+01
 1.0779067e+01   3.3401111e+01
 1.0784533e+01   3.3323155e+01
 1.0790000e+01   3.3388654e+01
 1.0795467e+01   3.3352791e+01
 1.0800933e+01   3.3412729e+01
 1.0806400e+01   3.3348171e+01
 1.0811867e+01   3.3385578e+01
 1.0817333e+01   3.3278016e+01
 1.0822800e+01   3.3322142e+01
 1.0828267e+01   3.3444103e+01
 1.0833733e+01   3.3345075e+01
 1.0839200e+01   3.3490905e+01
 1.0844667e+01   3.3431809e+01
 1.0850133e+01   3.3665855e+01
 1.0855600e+01   3.3322872e+01
 1.0861067e+01   3.3605618e+01
 1.0866533e+01   3.3762939e+01
 1.0872000e+01   3.3711706e+01
 1.0877467e+01   3.4248772e+01
 1.0882933e+01   3.4641632e+01
 1.0888400e+01   3.5100271e+01
 1.0893867e+01   3.5923114e+01
 1.0899333e+01   3.6967627e+01
 1.0904800e+01   3.7857098e+01
 1.0910267e+01   3.8656774e+01
 1.0915733e+01   3.8672031e+01
 1.0921200e+01   3.8872469e+01
 1.0926667e+01   3.8226140e+01
 1.0932133e+01   3.8038577e+01
 1.0937600e+01   3.7258554e+01
 1.0943067e+01   3.6669695e+01
 1.0948533e+01   3.5892125e+01
 1.0954000e+01   3.5124641e+01
 1.0959467e+01   3.4870208e+01
 1.0964933e+01   3.4435435e+01
 1.0970400e+01   3.4085544e+01
 1.0975867e+01   3.4111477e+01
 1.0981333e+01   3.3929826e+01
 1.0986800e+01   3.3998849e+01
 1.0992267e+01   3.3872296e+01
 1.0997733e+01   3.3955297e+01
 1.1003200e+01   3.3870763e+01
 1.1008667e+01   3.4110241e+01
 1.1014133e+01   3.3867455e+01
 1.1019600e+01   3.4185542e+01
 1.1025067e+01   3.3979779e+01
 1.1030533e+01   3.4285244e+01
 1.1036000e+01   3.4117525e+01
 1.1041467e+01   3.4382085e+01
 1.1046933e+01   3.4144943e+01
 1.1052400e+01   3.4313731e+01
 1.1057867e+01   3.4370336e+01
 1.1063333e+01   3.4417787e+01
 1.1068800e+01   3.4634470e+01
 1.1074267e+01   3.4591319e+01
 1.1079733e+01   3.4777796e+01
 1.1085200e+01   3.4937535e+01
 1.1090667e+01   3.5312016e+01
 1.1096133e+01   3.6061420e+01
 1.1101600e+01   3.6700775e+01
 1.1107067e+01   3.8685010e+01
 1.1112533e+01   4.1047943e+01
 1.1118000e+01   4.5569298e+01
 1.1123467e+01   4.9039535e+01
 1.1128933e+01   5.5106501e+01
 1.1134400e+01   5.9882728e+01
 1.1139867e+01   6.2256969e+01
 1.1145333e+01   6.4971684e+01
 1.1150800e+01   6.4800037e+01
 1.1156267e+01   6.3154689e+01
 1.1161733e+01   5.9843174e+01
 1.1167200e+01   5.4947574e+01
 1.1172667e+01   5.0123357e+01
 1.1178133e+01   4.5331109e+01
 1.1183600e+01   4.2046945e+01
 1.1189067e+01   3.9382842e+01
 1.1194533e+01   3.7978252e+01
