PWDR ff_004447_sum_norm_dc_0.tif Azm= 352.fxye Bank 1
2-Theta Angle (Degrees)
Intensity
       1500
 3.0000000e+00   4.8070647e+01
 3.0054667e+00   4.7360299e+01
 3.0109333e+00   4.7259697e+01
 3.0164000e+00   4.7057370e+01
 3.0218667e+00   4.6572340e+01
 3.0273333e+00   4.6585968e+01
 3.0328000e+00   4.6387166e+01
 3.0382667e+00   4.5937365e+01
 3.0437333e+00   4.6168135e+01
 3.0492000e+00   4.5698694e+01
 3.0546667e+00   4.5919748e+01
 3.0601333e+00   4.5334132e+01
 3.0656000e+00   4.5473266e+01
 3.0710667e+00   4.4961440e+01
 3.0765333e+00   4.4883911e+01
 3.0820000e+00   4.4619181e+01
 3.0874667e+00   4.4514557e+01
 3.0929333e+00   4.4371478e+01
 3.0984000e+00   4.4037776e+01
 3.1038667e+00   4.4180133e+01
 3.1093333e+00   4.3660729e+01
 3.1148000e+00   4.3597404e+01
 3.1202667e+00   4.3281011e+01
 3.1257333e+00   4.3607636e+01
 3.1312000e+00   4.2868620e+01
 3.1366667e+00   4.3373124e+01
 3.1421333e+00   4.2735693e+01
 3.1476000e+00   4.2907466e+01
 3.1530667e+00   4.2839652e+01
 3.1585333e+00   4.2650213e+01
 3.1640000e+00   4.2587513e+01
 3.1694667e+00   4.2620977e+01
 3.1749333e+00   4.2516500e+01
 3.1804000e+00   4.2218253e+01
 3.1858667e+00   4.2361228e+01
 3.1913333e+00   4.1872390e+01
 3.1968000e+00   4.2141910e+01
 3.2022667e+00   4.1668930e+01
 3.2077333e+00   4.1964650e+01
 3.2132000e+00   4.1286503e+01
 3.2186667e+00   4.1350994e+01
 3.2241333e+00   4.1069924e+01
 3.2296000e+00   4.0939755e+01
 3.2350667e+00   4.0451453e+01
 3.2405333e+00   4.0692269e+01
 3.2460000e+00   4.0198887e+01
 3.2514667e+00   4.0317340e+01
 3.2569333e+00   4.0161502e+01
 3.2624000e+00   3.9916296e+01
 3.2678667e+00   4.0322713e+01
 3.2733333e+00   3.9948539e+01
 3.2788000e+00   4.0314397e+01
 3.2842667e+00   3.9961068e+01
 3.2897333e+00   4.0269797e+01
 3.2952000e+00   3.9793477e+01
 3.3006667e+00   3.9867800e+01
 3.3061333e+00   3.9487694e+01
 3.3116000e+00   3.9837949e+01
 3.3170667e+00   3.9134132e+01
 3.3225333e+00   3.9595899e+01
 3.3280000e+00   3.9418877e+01
 3.3334667e+00   3.9285231e+01
 3.3389333e+00   3.9640611e+01
 3.3444000e+00   3.9319703e+01
 3.3498667e+00   3.9696724e+01
 3.3553333e+00   3.9320592e+01
 3.3608000e+00   3.9577516e+01
 3.3662667e+00   3.9269829e+01
 3.3717333e+00   3.9693930e+01
 3.3772000e+00   3.8993216e+01
 3.3826667e+00   4.0452319e+01
 3.3881333e+00   3.8992110e+01
 3.3936000e+00   3.9335789e+01
 3.3990667e+00   3.9014719e+01
 3.4045333e+00   3.9209630e+01
 3.4100000e+00   3.8979862e+01
 3.4154667e+00   3.9010416e+01
 3.4209333e+00   3.8946863e+01
 3.4264000e+00   3.8901792e+01
 3.4318667e+00   3.9058512e+01
 3.4373333e+00   3.8805852e+01
 3.4428000e+00   3.9229778e+01
 3.4482667e+00   3.8761642e+01
 3.4537333e+00   3.9282505e+01
 3.4592000e+00   3.8447086e+01
 3.4646667e+00   3.9225872e+01
 3.4701333e+00   3.8355070e+01
 3.4756000e+00   3.8991462e+01
 3.4810667e+00   3.8876020e+01
 3.4865333e+00   3.9015591e+01
 3.4920000e+00   3.8795523e+01
 3.4974667e+00   3.8981150e+01
 3.5029333e+00   3.8823472e+01
 3.5084000e+00   3.9080012e+01
 3.5138667e+00   3.9014526e+01
 3.5193333e+00   3.8908563e+01
 3.5248000e+00   3.9158227e+01
 3.5302667e+00   3.8742931e+01
 3.5357333e+00   3.9013477e+01
 3.5412000e+00   3.8639174e+01
 3.5466667e+00   3.8852663e+01
 3.5521333e+00   3.8501471e+01
 3.5576000e+00   3.8767646e+01
 3.5630667e+00   3.8556326e+01
 3.5685333e+00   3.8907569e+01
 3.5740000e+00   3.8749118e+01
 3.5794667e+00   3.9017520e+01
 3.5849333e+00   3.8780547e+01
 3.5904000e+00   3.8994562e+01
 3.5958667e+00   3.8835042e+01
 3.6013333e+00   3.8964132e+01
 3.6068000e+00   3.9020555e+01
 3.6122667e+00   3.8803278e+01
 3.6177333e+00   3.9021191e+01
 3.6232000e+00   3.8917051e+01
 3.6286667e+00   3.8995724e+01
 3.6341333e+00   3.8760566e+01
 3.6396000e+00   3.9169385e+01
 3.6450667e+00   3.8778169e+01
 3.6505333e+00   3.9139821e+01
 3.6560000e+00   3.9057106e+01
 3.6614667e+00   3.9491627e+01
 3.6669333e+00   3.9009803e+01
 3.6724000e+00   3.9774782e+01
 3.6778667e+00   3.9351520e+01
 3.6833333e+00   3.9732665e+01
 3.6888000e+00   3.9350807e+01
 3.6942667e+00   3.9633886e+01
 3.6997333e+00   3.9383721e+01
 3.7052000e+00   3.9630778e+01
 3.7106667e+00   3.9564507e+01
 3.7161333e+00   3.9698964e+01
 3.7216000e+00   3.9788997e+01
 3.7270667e+00   3.9561109e+01
 3.7325333e+00   3.9737815e+01
 3.7380000e+00   3.9628535e+01
 3.7434667e+00   3.9915466e+01
 3.7489333e+00   3.9906838e+01
 3.7544000e+00   4.0130003e+01
 3.7598667e+00   3.9968899e+01
 3.7653333e+00   4.0267627e+01
 3.7708000e+00   4.0421943e+01
 3.7762667e+00   4.0362324e+01
 3.7817333e+00   4.0567388e+01
 3.7872000e+00   4.0623913e+01
 3.7926667e+00   4.0934049e+01
 3.7981333e+00   4.0818221e+01
 3.8036000e+00   4.1790282e+01
 3.8090667e+00   4.1007559e+01
 3.8145333e+00   4.1335016e+01
 3.8200000e+00   4.1125893e+01
 3.8254667e+00   4.1290197e+01
 3.8309333e+00   4.1570361e+01
 3.8364000e+00   4.1469964e+01
 3.8418667e+00   4.1309700e+01
 3.8473333e+00   4.1848243e+01
 3.8528000e+00   4.1701399e+01
 3.8582667e+00   4.1983704e+01
 3.8637333e+00   4.2101139e+01
 3.8692000e+00   4.2049176e+01
 3.8746667e+00   4.2329744e+01
 3.8801333e+00   4.2230927e+01
 3.8856000e+00   4.2780518e+01
 3.8910667e+00   4.2769621e+01
 3.8965333e+00   4.2775765e+01
 3.9020000e+00   4.3150206e+01
 3.9074667e+00   4.3192178e+01
 3.9129333e+00   4.3217065e+01
 3.9184000e+00   4.3507115e+01
 3.9238667e+00   4.3177805e+01
 3.9293333e+00   4.3674239e+01
 3.9348000e+00   4.3389469e+01
 3.9402667e+00   4.3402791e+01
 3.9457333e+00   4.3823539e+01
 3.9512000e+00   4.3416400e+01
 3.9566667e+00   4.3902784e+01
 3.9621333e+00   4.3648380e+01
 3.9676000e+00   4.4011600e+01
 3.9730667e+00   4.3921766e+01
 3.9785333e+00   4.4032409e+01
 3.9840000e+00   4.3999747e+01
 3.9894667e+00   4.4203105e+01
 3.9949333e+00   4.4080064e+01
 4.0004000e+00   4.4323338e+01
 4.0058667e+00   4.4526681e+01
 4.0113333e+00   4.4522998e+01
 4.0168000e+00   4.4804999e+01
 4.0222667e+00   4.4796957e+01
 4.0277333e+00   4.5126794e+01
 4.0332000e+00   4.5103293e+01
 4.0386667e+00   4.5491449e+01
 4.0441333e+00   4.6318343e+01
 4.0496000e+00   4.5456214e+01
 4.0550667e+00   4.5623037e+01
 4.0605333e+00   4.6060709e+01
 4.0660000e+00   4.5989180e+01
 4.0714667e+00   4.7417241e+01
 4.0769333e+00   4.7620745e+01
 4.0824000e+00   4.7043008e+01
 4.0878667e+00   4.8266787e+01
 4.0933333e+00   4.7428061e+01
 4.0988000e+00   4.8539532e+01
 4.1042667e+00   4.8408535e+01
 4.1097333e+00   4.8751978e+01
 4.1152000e+00   4.8771020e+01
 4.1206667e+00   4.8890977e+01
 4.1261333e+00   4.8646830e+01
 4.1316000e+00   4.8975139e+01
 4.1370667e+00   4.8668407e+01
 4.1425333e+00   4.9091163e+01
 4.1480000e+00   4.8583740e+01
 4.1534667e+00   4.8950802e+01
 4.1589333e+00   4.8873318e+01
 4.1644000e+00   4.9082934e+01
 4.1698667e+00   4.8866079e+01
 4.1753333e+00   4.9004977e+01
 4.1808000e+00   4.9003821e+01
 4.1862667e+00   4.9143021e+01
 4.1917333e+00   4.8996387e+01
 4.1972000e+00   4.9248503e+01
 4.2026667e+00   4.9296124e+01
 4.2081333e+00   4.9317063e+01
 4.2136000e+00   4.9635344e+01
 4.2190667e+00   4.9332218e+01
 4.2245333e+00   4.9999969e+01
 4.2300000e+00   4.9520612e+01
 4.2354667e+00   5.0190816e+01
 4.2409333e+00   5.0114189e+01
 4.2464000e+00   5.0412273e+01
 4.2518667e+00   5.0654744e+01
 4.2573333e+00   5.1265511e+01
 4.2628000e+00   5.1051904e+01
 4.2682667e+00   5.1580432e+01
 4.2737333e+00   5.1591937e+01
 4.2792000e+00   5.1922784e+01
 4.2846667e+00   5.2327792e+01
 4.2901333e+00   5.2219843e+01
 4.2956000e+00   5.2972796e+01
 4.3010667e+00   5.2704255e+01
 4.3065333e+00   5.3469666e+01
 4.3120000e+00   5.3470688e+01
 4.3174667e+00   5.3807378e+01
 4.3229333e+00   5.4066831e+01
 4.3284000e+00   5.4317920e+01
 4.3338667e+00   5.4442904e+01
 4.3393333e+00   5.5182645e+01
 4.3448000e+00   5.4878098e+01
 4.3502667e+00   5.5814029e+01
 4.3557333e+00   5.5599496e+01
 4.3612000e+00   5.6278005e+01
 4.3666667e+00   5.6570124e+01
 4.3721333e+00   5.7095191e+01
 4.3776000e+00   5.7522254e+01
 4.3830667e+00   5.8063947e+01
 4.3885333e+00   5.8616404e+01
 4.3940000e+00   5.9470603e+01
 4.3994667e+00   5.9908913e+01
 4.4049333e+00   6.0627421e+01
 4.4104000e+00   6.1653467e+01
 4.4158667e+00   6.2005056e+01
 4.4213333e+00   6.3291478e+01
 4.4268000e+00   6.3961923e+01
 4.4322667e+00   6.5176786e+01
 4.4377333e+00   6.6348508e+01
 4.4432000e+00   6.8369225e+01
 4.4486667e+00   7.1019786e+01
 4.4541333e+00   7.5366027e+01
 4.4596000e+00   8.4772404e+01
 4.4650667e+00   1.0136472e+02
 4.4705333e+00   1.3467016e+02
 4.4760000e+00   1.8060022e+02
 4.4814667e+00   2.4313298e+02
 4.4869333e+00   3.4138135e+02
 4.4924000e+00   4.7086420e+02
 4.4978667e+00   6.0306030e+02
 4.5033333e+00   7.7255561e+02
 4.5088000e+00   8.5255730e+02
 4.5142667e+00   1.0041356e+03
 4.5197333e+00   9.1573751e+02
 4.5252000e+00   7.7565457e+02
 4.5306667e+00   6.2108741e+02
 4.5361333e+00   4.8690935e+02
 4.5416000e+00   3.5319398e+02
 4.5470667e+00   2.5379804e+02
 4.5525333e+00   2.2850316e+02
 4.5580000e+00   1.4320617e+02
 4.5634667e+00   1.2754101e+02
 4.5689333e+00   9.2263700e+01
 4.5744000e+00   8.1622623e+01
 4.5798667e+00   7.3669022e+01
 4.5853333e+00   7.0659031e+01
 4.5908000e+00   6.8558405e+01
 4.5962667e+00   6.7324730e+01
 4.6017333e+00   6.6190429e+01
 4.6072000e+00   6.6358094e+01
 4.6126667e+00   6.5074709e+01
 4.6181333e+00   6.5649402e+01
 4.6236000e+00   6.5231756e+01
 4.6290667e+00   6.5492172e+01
 4.6345333e+00   6.5623998e+01
 4.6400000e+00   6.6272202e+01
 4.6454667e+00   6.6799884e+01
 4.6509333e+00   6.6819236e+01
 4.6564000e+00   6.7616681e+01
 4.6618667e+00   6.7235291e+01
 4.6673333e+00   6.6681326e+01
 4.6728000e+00   6.6769867e+01
 4.6782667e+00   6.6221726e+01
 4.6837333e+00   6.5258550e+01
 4.6892000e+00   6.5481421e+01
 4.6946667e+00   6.4404891e+01
 4.7001333e+00   6.4098725e+01
 4.7056000e+00   6.3892624e+01
 4.7110667e+00   6.3430004e+01
 4.7165333e+00   6.3354271e+01
 4.7220000e+00   6.2918413e+01
 4.7274667e+00   6.3101570e+01
 4.7329333e+00   6.2436611e+01
 4.7384000e+00   6.2598813e+01
 4.7438667e+00   6.1828150e+01
 4.7493333e+00   6.2165121e+01
 4.7548000e+00   6.1562140e+01
 4.7602667e+00   6.1253547e+01
 4.7657333e+00   6.2108412e+01
 4.7712000e+00   6.1724248e+01
 4.7766667e+00   6.1884824e+01
 4.7821333e+00   6.1210659e+01
 4.7876000e+00   6.1569523e+01
 4.7930667e+00   6.0843898e+01
 4.7985333e+00   6.1503463e+01
 4.8040000e+00   6.1291401e+01
 4.8094667e+00   6.1678660e+01
 4.8149333e+00   6.1896465e+01
 4.8204000e+00   6.2157756e+01
 4.8258667e+00   6.2151120e+01
 4.8313333e+00   6.2685407e+01
 4.8368000e+00   6.2959769e+01
 4.8422667e+00   6.2926012e+01
 4.8477333e+00   6.4145295e+01
 4.8532000e+00   6.3288172e+01
 4.8586667e+00   6.4943764e+01
 4.8641333e+00   6.4057900e+01
 4.8696000e+00   6.6683316e+01
 4.8750667e+00   6.4860030e+01
 4.8805333e+00   6.8230600e+01
 4.8860000e+00   6.6682957e+01
 4.8914667e+00   7.0693314e+01
 4.8969333e+00   6.9835062e+01
 4.9024000e+00   7.5892794e+01
 4.9078667e+00   7.6435925e+01
 4.9133333e+00   8.8811406e+01
 4.9188000e+00   9.6956986e+01
 4.9242667e+00   1.2776450e+02
 4.9297333e+00   1.5688279e+02
 4.9352000e+00   1.6412416e+02
 4.9406667e+00   2.9291145e+02
 4.9461333e+00   2.1896491e+02
 4.9516000e+00   4.5363549e+02
 4.9570667e+00   3.1880218e+02
 4.9625333e+00   5.3435475e+02
 4.9680000e+00   4.2694299e+02
 4.9734667e+00   4.5505272e+02
 4.9789333e+00   4.8496271e+02
 4.9844000e+00   4.1828930e+02
 4.9898667e+00   4.8963656e+02
 4.9953333e+00   3.6673202e+02
 5.0008000e+00   2.8217217e+02
 5.0062667e+00   2.4663479e+02
 5.0117333e+00   1.7464201e+02
 5.0172000e+00   1.5922801e+02
 5.0226667e+00   1.1063781e+02
 5.0281333e+00   9.6945508e+01
 5.0336000e+00   8.4490916e+01
 5.0390667e+00   7.6138534e+01
 5.0445333e+00   7.4348400e+01
 5.0500000e+00   7.0490246e+01
 5.0554667e+00   6.9988057e+01
 5.0609333e+00   6.7897341e+01
 5.0664000e+00   6.6982550e+01
 5.0718667e+00   6.6246983e+01
 5.0773333e+00   6.5154800e+01
 5.0828000e+00   6.4337091e+01
 5.0882667e+00   6.3604572e+01
 5.0937333e+00   6.2997271e+01
 5.0992000e+00   6.2132436e+01
 5.1046667e+00   6.1454766e+01
 5.1101333e+00   6.1090590e+01
 5.1156000e+00   6.0410887e+01
 5.1210667e+00   5.9609423e+01
 5.1265333e+00   5.9686348e+01
 5.1320000e+00   5.8515260e+01
 5.1374667e+00   5.8735603e+01
 5.1429333e+00   5.7807522e+01
 5.1484000e+00   5.7810939e+01
 5.1538667e+00   5.7070106e+01
 5.1593333e+00   5.7126235e+01
 5.1648000e+00   5.6640324e+01
 5.1702667e+00   5.6403779e+01
 5.1757333e+00   5.6210244e+01
 5.1812000e+00   5.5645371e+01
 5.1866667e+00   5.5531383e+01
 5.1921333e+00   5.5239370e+01
 5.1976000e+00   5.4948279e+01
 5.2030667e+00   5.4634916e+01
 5.2085333e+00   5.4420934e+01
 5.2140000e+00   5.4047785e+01
 5.2194667e+00   5.4205484e+01
 5.2249333e+00   5.3674809e+01
 5.2304000e+00   5.3852627e+01
 5.2358667e+00   5.3210699e+01
 5.2413333e+00   5.3416859e+01
 5.2468000e+00   5.2865016e+01
 5.2522667e+00   5.2791304e+01
 5.2577333e+00   5.2627143e+01
 5.2632000e+00   5.2333944e+01
 5.2686667e+00   5.2197485e+01
 5.2741333e+00   5.2112592e+01
 5.2796000e+00   5.1814385e+01
 5.2850667e+00   5.1875492e+01
 5.2905333e+00   5.1723344e+01
 5.2960000e+00   5.1416562e+01
 5.3014667e+00   5.1319776e+01
 5.3069333e+00   5.1244410e+01
 5.3124000e+00   5.0831791e+01
 5.3178667e+00   5.0835300e+01
 5.3233333e+00   5.0772116e+01
 5.3288000e+00   5.0484300e+01
 5.3342667e+00   5.0352062e+01
 5.3397333e+00   5.0194227e+01
 5.3452000e+00   5.0096347e+01
 5.3506667e+00   5.0021947e+01
 5.3561333e+00   4.9846130e+01
 5.3616000e+00   4.9718051e+01
 5.3670667e+00   4.9696711e+01
 5.3725333e+00   4.9398556e+01
 5.3780000e+00   4.9414191e+01
 5.3834667e+00   4.9165094e+01
 5.3889333e+00   4.9214197e+01
 5.3944000e+00   4.8915348e+01
 5.3998667e+00   4.9012702e+01
 5.4053333e+00   4.8755158e+01
 5.4108000e+00   4.8749099e+01
 5.4162667e+00   4.8514748e+01
 5.4217333e+00   4.8502048e+01
 5.4272000e+00   4.8408177e+01
 5.4326667e+00   4.8353344e+01
 5.4381333e+00   4.8209687e+01
 5.4436000e+00   4.8075713e+01
 5.4490667e+00   4.8152693e+01
 5.4545333e+00   4.8128886e+01
 5.4600000e+00   4.7898988e+01
 5.4654667e+00   4.8108046e+01
 5.4709333e+00   4.7884782e+01
 5.4764000e+00   4.7671704e+01
 5.4818667e+00   4.8052341e+01
 5.4873333e+00   4.7175561e+01
 5.4928000e+00   4.7699049e+01
 5.4982667e+00   4.7198214e+01
 5.5037333e+00   4.7347127e+01
 5.5092000e+00   4.7182941e+01
 5.5146667e+00   4.7298238e+01
 5.5201333e+00   4.7024246e+01
 5.5256000e+00   4.7117086e+01
 5.5310667e+00   4.7076539e+01
 5.5365333e+00   4.7009779e+01
 5.5420000e+00   4.7038732e+01
 5.5474667e+00   4.6945033e+01
 5.5529333e+00   4.7103544e+01
 5.5584000e+00   4.6896797e+01
 5.5638667e+00   4.7179689e+01
 5.5693333e+00   4.7217309e+01
 5.5748000e+00   4.7811776e+01
 5.5802667e+00   4.6848734e+01
 5.5857333e+00   4.7382247e+01
 5.5912000e+00   4.7121794e+01
 5.5966667e+00   4.7258208e+01
 5.6021333e+00   4.6973192e+01
 5.6076000e+00   4.7319893e+01
 5.6130667e+00   4.7059311e+01
 5.6185333e+00   4.7250186e+01
 5.6240000e+00   4.7117050e+01
 5.6294667e+00   4.7388996e+01
 5.6349333e+00   4.7448578e+01
 5.6404000e+00   4.7484571e+01
 5.6458667e+00   4.7826718e+01
 5.6513333e+00   4.7981090e+01
 5.6568000e+00   4.8496590e+01
 5.6622667e+00   4.8364348e+01
 5.6677333e+00   5.0884021e+01
 5.6732000e+00   5.0686153e+01
 5.6786667e+00   6.3769094e+01
 5.6841333e+00   7.0383294e+01
 5.6896000e+00   7.4052159e+01
 5.6950667e+00   8.6203513e+01
 5.7005333e+00   1.2462398e+02
 5.7060000e+00   1.1706290e+02
 5.7114667e+00   1.4796328e+02
 5.7169333e+00   1.4413995e+02
 5.7224000e+00   1.6357666e+02
 5.7278667e+00   1.3935049e+02
 5.7333333e+00   1.9501714e+02
 5.7388000e+00   1.3744615e+02
 5.7442667e+00   1.9609504e+02
 5.7497333e+00   1.6370513e+02
 5.7552000e+00   1.6023802e+02
 5.7606667e+00   1.5485003e+02
 5.7661333e+00   1.5166553e+02
 5.7716000e+00   1.1581426e+02
 5.7770667e+00   1.2084072e+02
 5.7825333e+00   7.8211798e+01
 5.7880000e+00   8.8010151e+01
 5.7934667e+00   6.5806183e+01
 5.7989333e+00   5.9783429e+01
 5.8044000e+00   5.2473824e+01
 5.8098667e+00   4.9976966e+01
 5.8153333e+00   4.8196726e+01
 5.8208000e+00   4.7102512e+01
 5.8262667e+00   4.6683721e+01
 5.8317333e+00   4.6153178e+01
 5.8372000e+00   4.5901879e+01
 5.8426667e+00   4.5814544e+01
 5.8481333e+00   4.4968721e+01
 5.8536000e+00   4.5342174e+01
 5.8590667e+00   4.4630332e+01
 5.8645333e+00   4.5048130e+01
 5.8700000e+00   4.4162859e+01
 5.8754667e+00   4.4459827e+01
 5.8809333e+00   4.4094682e+01
 5.8864000e+00   4.4000451e+01
 5.8918667e+00   4.3543923e+01
 5.8973333e+00   4.3682942e+01
 5.9028000e+00   4.3070529e+01
 5.9082667e+00   4.3243730e+01
 5.9137333e+00   4.2895087e+01
 5.9192000e+00   4.2777801e+01
 5.9246667e+00   4.2681817e+01
 5.9301333e+00   4.2558064e+01
 5.9356000e+00   4.2630205e+01
 5.9410667e+00   4.2412664e+01
 5.9465333e+00   4.2696171e+01
 5.9520000e+00   4.2140639e+01
 5.9574667e+00   4.2705846e+01
 5.9629333e+00   4.2278853e+01
 5.9684000e+00   4.2466078e+01
 5.9738667e+00   4.2073375e+01
 5.9793333e+00   4.2323679e+01
 5.9848000e+00   4.2225379e+01
 5.9902667e+00   4.2168899e+01
 5.9957333e+00   4.2037618e+01
 6.0012000e+00   4.2223692e+01
 6.0066667e+00   4.1965668e+01
 6.0121333e+00   4.2131289e+01
 6.0176000e+00   4.2250256e+01
 6.0230667e+00   4.2035982e+01
 6.0285333e+00   4.2240204e+01
 6.0340000e+00   4.2068737e+01
 6.0394667e+00   4.2423749e+01
 6.0449333e+00   4.1967285e+01
 6.0504000e+00   4.2484936e+01
 6.0558667e+00   4.1877393e+01
 6.0613333e+00   4.2402214e+01
 6.0668000e+00   4.1909859e+01
 6.0722667e+00   4.2301264e+01
 6.0777333e+00   4.1761955e+01
 6.0832000e+00   4.2194081e+01
 6.0886667e+00   4.1646578e+01
 6.0941333e+00   4.2084142e+01
 6.0996000e+00   4.1659313e+01
 6.1050667e+00   4.2012175e+01
 6.1105333e+00   4.1807395e+01
 6.1160000e+00   4.1853051e+01
 6.1214667e+00   4.1900627e+01
 6.1269333e+00   4.1898039e+01
 6.1324000e+00   4.1851508e+01
 6.1378667e+00   4.1551791e+01
 6.1433333e+00   4.1710005e+01
 6.1488000e+00   4.1225890e+01
 6.1542667e+00   4.1620679e+01
 6.1597333e+00   4.1050982e+01
 6.1652000e+00   4.1170683e+01
 6.1706667e+00   4.1236086e+01
 6.1761333e+00   4.1321633e+01
 6.1816000e+00   4.1008508e+01
 6.1870667e+00   4.1424814e+01
 6.1925333e+00   4.1067198e+01
 6.1980000e+00   4.1262463e+01
 6.2034667e+00   4.0952583e+01
 6.2089333e+00   4.1161012e+01
 6.2144000e+00   4.1051460e+01
 6.2198667e+00   4.1048902e+01
 6.2253333e+00   4.1196984e+01
 6.2308000e+00   4.1182775e+01
 6.2362667e+00   4.1440626e+01
 6.2417333e+00   4.1113378e+01
 6.2472000e+00   4.1336734e+01
 6.2526667e+00   4.1369051e+01
 6.2581333e+00   4.1369676e+01
 6.2636000e+00   4.1320420e+01
 6.2690667e+00   4.1431211e+01
 6.2745333e+00   4.1226283e+01
 6.2800000e+00   4.1498969e+01
 6.2854667e+00   4.1149937e+01
 6.2909333e+00   4.1759350e+01
 6.2964000e+00   4.1213335e+01
 6.3018667e+00   4.1703567e+01
 6.3073333e+00   4.1618657e+01
 6.3128000e+00   4.1898149e+01
 6.3182667e+00   4.2237201e+01
 6.3237333e+00   4.2525459e+01
 6.3292000e+00   4.3465467e+01
 6.3346667e+00   4.4826517e+01
 6.3401333e+00   4.8084492e+01
 6.3456000e+00   5.4224394e+01
 6.3510667e+00   6.7958571e+01
 6.3565333e+00   8.2712509e+01
 6.3620000e+00   1.1148781e+02
 6.3674667e+00   1.3305674e+02
 6.3729333e+00   1.5836813e+02
 6.3784000e+00   1.5371843e+02
 6.3838667e+00   1.5676271e+02
 6.3893333e+00   1.2921146e+02
 6.3948000e+00   1.1956486e+02
 6.4002667e+00   1.0039938e+02
 6.4057333e+00   9.5397193e+01
 6.4112000e+00   8.4229309e+01
 6.4166667e+00   8.6008790e+01
 6.4221333e+00   7.1689526e+01
 6.4276000e+00   6.2114145e+01
 6.4330667e+00   5.3884965e+01
 6.4385333e+00   4.7573155e+01
 6.4440000e+00   4.4857902e+01
 6.4494667e+00   4.2737480e+01
 6.4549333e+00   4.2288987e+01
 6.4604000e+00   4.1587130e+01
 6.4658667e+00   4.1697701e+01
 6.4713333e+00   4.1027945e+01
 6.4768000e+00   4.1216435e+01
 6.4822667e+00   4.0827602e+01
 6.4877333e+00   4.0867844e+01
 6.4932000e+00   4.0772224e+01
 6.4986667e+00   4.0652193e+01
 6.5041333e+00   4.0803909e+01
 6.5096000e+00   4.0663147e+01
 6.5150667e+00   4.0643007e+01
 6.5205333e+00   4.0564068e+01
 6.5260000e+00   4.0675662e+01
 6.5314667e+00   4.0287982e+01
 6.5369333e+00   4.0860051e+01
 6.5424000e+00   4.0175513e+01
 6.5478667e+00   4.0338381e+01
 6.5533333e+00   4.0063820e+01
 6.5588000e+00   4.0379256e+01
 6.5642667e+00   3.9950100e+01
 6.5697333e+00   4.0191898e+01
 6.5752000e+00   4.0050184e+01
 6.5806667e+00   4.0016613e+01
 6.5861333e+00   4.0056440e+01
 6.5916000e+00   4.0025851e+01
 6.5970667e+00   3.9917490e+01
 6.6025333e+00   3.9935786e+01
 6.6080000e+00   3.9981019e+01
 6.6134667e+00   3.9920287e+01
 6.6189333e+00   3.9951693e+01
 6.6244000e+00   3.9892167e+01
 6.6298667e+00   4.0161115e+01
 6.6353333e+00   3.9804589e+01
 6.6408000e+00   4.0142195e+01
 6.6462667e+00   3.9931321e+01
 6.6517333e+00   4.0088223e+01
 6.6572000e+00   4.0025657e+01
 6.6626667e+00   4.0018243e+01
 6.6681333e+00   3.9877816e+01
 6.6736000e+00   4.0053112e+01
 6.6790667e+00   3.9826462e+01
 6.6845333e+00   3.9779794e+01
 6.6900000e+00   4.0224574e+01
 6.6954667e+00   3.9791951e+01
 6.7009333e+00   3.9885993e+01
 6.7064000e+00   4.0039817e+01
 6.7118667e+00   4.0115771e+01
 6.7173333e+00   3.9829528e+01
 6.7228000e+00   4.0183574e+01
 6.7282667e+00   3.9733817e+01
 6.7337333e+00   4.0340976e+01
 6.7392000e+00   3.9660999e+01
 6.7446667e+00   4.0277964e+01
 6.7501333e+00   3.9819015e+01
 6.7556000e+00   4.0202491e+01
 6.7610667e+00   3.9900578e+01
 6.7665333e+00   4.0179043e+01
 6.7720000e+00   4.0055568e+01
 6.7774667e+00   4.0313873e+01
 6.7829333e+00   4.0041392e+01
 6.7884000e+00   4.0461582e+01
 6.7938667e+00   4.0154271e+01
 6.7993333e+00   4.0390650e+01
 6.8048000e+00   4.0523988e+01
 6.8102667e+00   4.0131127e+01
 6.8157333e+00   4.0612625e+01
 6.8212000e+00   4.0249505e+01
 6.8266667e+00   4.0619408e+01
 6.8321333e+00   4.0092967e+01
 6.8376000e+00   4.0882368e+01
 6.8430667e+00   3.9768366e+01
 6.8485333e+00   4.1020372e+01
 6.8540000e+00   3.9944520e+01
 6.8594667e+00   4.0898747e+01
 6.8649333e+00   4.0189295e+01
 6.8704000e+00   4.0584764e+01
 6.8758667e+00   4.0381256e+01
 6.8813333e+00   4.0708017e+01
 6.8868000e+00   4.0416430e+01
 6.8922667e+00   4.0791104e+01
 6.8977333e+00   4.0501546e+01
 6.9032000e+00   4.0648467e+01
 6.9086667e+00   4.0743821e+01
 6.9141333e+00   4.0561852e+01
 6.9196000e+00   4.0799568e+01
 6.9250667e+00   4.0499380e+01
 6.9305333e+00   4.0979963e+01
 6.9360000e+00   4.0626284e+01
 6.9414667e+00   4.1231082e+01
 6.9469333e+00   4.0705178e+01
 6.9524000e+00   4.1294773e+01
 6.9578667e+00   4.0858246e+01
 6.9633333e+00   4.1381029e+01
 6.9688000e+00   4.0877126e+01
 6.9742667e+00   4.1600982e+01
 6.9797333e+00   4.1218810e+01
 6.9852000e+00   4.1664332e+01
 6.9906667e+00   4.1267849e+01
 6.9961333e+00   4.1920434e+01
 7.0016000e+00   4.1421897e+01
 7.0070667e+00   4.1992438e+01
 7.0125333e+00   4.1544814e+01
 7.0180000e+00   4.1898002e+01
 7.0234667e+00   4.1706887e+01
 7.0289333e+00   4.1763195e+01
 7.0344000e+00   4.2030769e+01
 7.0398667e+00   4.1721516e+01
 7.0453333e+00   4.2130333e+01
 7.0508000e+00   4.1851200e+01
 7.0562667e+00   4.2212152e+01
 7.0617333e+00   4.1989478e+01
 7.0672000e+00   4.2465883e+01
 7.0726667e+00   4.2173742e+01
 7.0781333e+00   4.2462002e+01
 7.0836000e+00   4.2362681e+01
 7.0890667e+00   4.2744218e+01
 7.0945333e+00   4.2749765e+01
 7.1000000e+00   4.3061033e+01
 7.1054667e+00   4.2974707e+01
 7.1109333e+00   4.3500687e+01
 7.1164000e+00   4.3244431e+01
 7.1218667e+00   4.3680815e+01
 7.1273333e+00   4.3578980e+01
 7.1328000e+00   4.3548331e+01
 7.1382667e+00   4.3924786e+01
 7.1437333e+00   4.3276593e+01
 7.1492000e+00   4.3966176e+01
 7.1546667e+00   4.3293229e+01
 7.1601333e+00   4.3677125e+01
 7.1656000e+00   4.3684348e+01
 7.1710667e+00   4.3829451e+01
 7.1765333e+00   4.3718769e+01
 7.1820000e+00   4.3946233e+01
 7.1874667e+00   4.3767191e+01
 7.1929333e+00   4.4084855e+01
 7.1984000e+00   4.3887472e+01
 7.2038667e+00   4.3962256e+01
 7.2093333e+00   4.3819365e+01
 7.2148000e+00   4.3802429e+01
 7.2202667e+00   4.3732999e+01
 7.2257333e+00   4.3628989e+01
 7.2312000e+00   4.3855293e+01
 7.2366667e+00   4.3821607e+01
 7.2421333e+00   4.4033497e+01
 7.2476000e+00   4.3674507e+01
 7.2530667e+00   4.4257873e+01
 7.2585333e+00   4.3739791e+01
 7.2640000e+00   4.4206263e+01
 7.2694667e+00   4.3966987e+01
 7.2749333e+00   4.4357299e+01
 7.2804000e+00   4.4120237e+01
 7.2858667e+00   4.4393866e+01
 7.2913333e+00   4.4528008e+01
 7.2968000e+00   4.4477485e+01
 7.3022667e+00   4.4503704e+01
 7.3077333e+00   4.4906967e+01
 7.3132000e+00   4.4675664e+01
 7.3186667e+00   4.4848476e+01
 7.3241333e+00   4.4773448e+01
 7.3296000e+00   4.4835173e+01
 7.3350667e+00   4.5070945e+01
 7.3405333e+00   4.4911511e+01
 7.3460000e+00   4.5219724e+01
 7.3514667e+00   4.5161106e+01
 7.3569333e+00   4.5238736e+01
 7.3624000e+00   4.5012923e+01
 7.3678667e+00   4.5521358e+01
 7.3733333e+00   4.5036909e+01
 7.3788000e+00   4.5583078e+01
 7.3842667e+00   4.5348168e+01
 7.3897333e+00   4.5613132e+01
 7.3952000e+00   4.5571002e+01
 7.4006667e+00   4.5914908e+01
 7.4061333e+00   4.5588479e+01
 7.4116000e+00   4.6076441e+01
 7.4170667e+00   4.5937655e+01
 7.4225333e+00   4.5949524e+01
 7.4280000e+00   4.6351587e+01
 7.4334667e+00   4.6132987e+01
 7.4389333e+00   4.6379442e+01
 7.4444000e+00   4.6311114e+01
 7.4498667e+00   4.6438473e+01
 7.4553333e+00   4.6447075e+01
 7.4608000e+00   4.6735926e+01
 7.4662667e+00   4.6673130e+01
 7.4717333e+00   4.6996982e+01
 7.4772000e+00   4.6940801e+01
 7.4826667e+00   4.7315423e+01
 7.4881333e+00   4.7031729e+01
 7.4936000e+00   4.7406982e+01
 7.4990667e+00   4.7413111e+01
 7.5045333e+00   4.7591452e+01
 7.5100000e+00   4.7637529e+01
 7.5154667e+00   4.7259832e+01
 7.5209333e+00   4.7749028e+01
 7.5264000e+00   4.7606912e+01
 7.5318667e+00   4.7723409e+01
 7.5373333e+00   4.7743889e+01
 7.5428000e+00   4.8164518e+01
 7.5482667e+00   4.7552041e+01
 7.5537333e+00   4.8308312e+01
 7.5592000e+00   4.7882080e+01
 7.5646667e+00   4.8366302e+01
 7.5701333e+00   4.8202038e+01
 7.5756000e+00   4.8502432e+01
 7.5810667e+00   4.8359715e+01
 7.5865333e+00   4.8759563e+01
 7.5920000e+00   4.8633501e+01
 7.5974667e+00   4.9111140e+01
 7.6029333e+00   4.8871507e+01
 7.6084000e+00   4.9226150e+01
 7.6138667e+00   4.8917999e+01
 7.6193333e+00   4.9496481e+01
 7.6248000e+00   4.9402363e+01
 7.6302667e+00   4.9456988e+01
 7.6357333e+00   4.9914376e+01
 7.6412000e+00   4.9603577e+01
 7.6466667e+00   5.0244672e+01
 7.6521333e+00   5.0030220e+01
 7.6576000e+00   5.0218531e+01
 7.6630667e+00   5.0360152e+01
 7.6685333e+00   5.0485927e+01
 7.6740000e+00   5.0401766e+01
 7.6794667e+00   5.1117350e+01
 7.6849333e+00   5.0655718e+01
 7.6904000e+00   5.1199843e+01
 7.6958667e+00   5.1212330e+01
 7.7013333e+00   5.1577581e+01
 7.7068000e+00   5.1366207e+01
 7.7122667e+00   5.1905691e+01
 7.7177333e+00   5.1824818e+01
 7.7232000e+00   5.2135786e+01
 7.7286667e+00   5.2356750e+01
 7.7341333e+00   5.2615751e+01
 7.7396000e+00   5.3156120e+01
 7.7450667e+00   5.3139057e+01
 7.7505333e+00   5.3816288e+01
 7.7560000e+00   5.3986765e+01
 7.7614667e+00   5.4806804e+01
 7.7669333e+00   5.5584919e+01
 7.7724000e+00   5.7544965e+01
 7.7778667e+00   6.0449848e+01
 7.7833333e+00   6.5966644e+01
 7.7888000e+00   7.4944952e+01
 7.7942667e+00   9.0048543e+01
 7.7997333e+00   1.0913265e+02
 7.8052000e+00   1.3039843e+02
 7.8106667e+00   1.4405291e+02
 7.8161333e+00   1.6272181e+02
 7.8216000e+00   1.7627516e+02
 7.8270667e+00   1.6925294e+02
 7.8325333e+00   1.6889718e+02
 7.8380000e+00   1.5449055e+02
 7.8434667e+00   1.4027904e+02
 7.8489333e+00   1.2537122e+02
 7.8544000e+00   1.1554330e+02
 7.8598667e+00   9.6487545e+01
 7.8653333e+00   8.6662677e+01
 7.8708000e+00   7.1087999e+01
 7.8762667e+00   6.4642029e+01
 7.8817333e+00   6.0199071e+01
 7.8872000e+00   5.8138633e+01
 7.8926667e+00   5.6952602e+01
 7.8981333e+00   5.6652339e+01
 7.9036000e+00   5.5852655e+01
 7.9090667e+00   5.5924209e+01
 7.9145333e+00   5.5455594e+01
 7.9200000e+00   5.5541722e+01
 7.9254667e+00   5.5321303e+01
 7.9309333e+00   5.5187494e+01
 7.9364000e+00   5.5093682e+01
 7.9418667e+00   5.4825791e+01
 7.9473333e+00   5.4997794e+01
 7.9528000e+00   5.4568193e+01
 7.9582667e+00   5.4836661e+01
 7.9637333e+00   5.4525681e+01
 7.9692000e+00   5.4601233e+01
 7.9746667e+00   5.4163596e+01
 7.9801333e+00   5.4617914e+01
 7.9856000e+00   5.4028037e+01
 7.9910667e+00   5.4417295e+01
 7.9965333e+00   5.4013163e+01
 8.0020000e+00   5.4231647e+01
 8.0074667e+00   5.3958255e+01
 8.0129333e+00   5.4430818e+01
 8.0184000e+00   5.4203136e+01
 8.0238667e+00   5.4706773e+01
 8.0293333e+00   5.4600020e+01
 8.0348000e+00   5.5028059e+01
 8.0402667e+00   5.5287316e+01
 8.0457333e+00   5.5990968e+01
 8.0512000e+00   5.6264063e+01
 8.0566667e+00   6.0646805e+01
 8.0621333e+00   5.9755748e+01
 8.0676000e+00   7.5375536e+01
 8.0730667e+00   6.7446693e+01
 8.0785333e+00   8.4308926e+01
 8.0840000e+00   7.2374570e+01
 8.0894667e+00   9.3795128e+01
 8.0949333e+00   7.9307847e+01
 8.1004000e+00   1.2442754e+02
 8.1058667e+00   1.1669675e+02
 8.1113333e+00   1.4772129e+02
 8.1168000e+00   1.4228734e+02
 8.1222667e+00   1.4180751e+02
 8.1277333e+00   1.2496386e+02
 8.1332000e+00   1.3355347e+02
 8.1386667e+00   1.1013760e+02
 8.1441333e+00   1.1280727e+02
 8.1496000e+00   1.0336724e+02
 8.1550667e+00   1.0202980e+02
 8.1605333e+00   9.2341993e+01
 8.1660000e+00   8.6053884e+01
 8.1714667e+00   9.3377433e+01
 8.1769333e+00   8.2513564e+01
 8.1824000e+00   7.8359965e+01
 8.1878667e+00   6.9020139e+01
 8.1933333e+00   6.2638994e+01
 8.1988000e+00   5.8009231e+01
 8.2042667e+00   5.6359366e+01
 8.2097333e+00   5.5714962e+01
 8.2152000e+00   5.4980196e+01
 8.2206667e+00   5.4917818e+01
 8.2261333e+00   5.4702184e+01
 8.2316000e+00   5.4446119e+01
 8.2370667e+00   5.4324146e+01
 8.2425333e+00   5.4011852e+01
 8.2480000e+00   5.3994890e+01
 8.2534667e+00   5.3688655e+01
 8.2589333e+00   5.4041835e+01
 8.2644000e+00   5.3513787e+01
 8.2698667e+00   5.3724033e+01
 8.2753333e+00   5.3177739e+01
 8.2808000e+00   5.3436665e+01
 8.2862667e+00   5.2930419e+01
 8.2917333e+00   5.3086370e+01
 8.2972000e+00   5.2586233e+01
 8.3026667e+00   5.2896857e+01
 8.3081333e+00   5.2363473e+01
 8.3136000e+00   5.2572394e+01
 8.3190667e+00   5.2307494e+01
 8.3245333e+00   5.2333975e+01
 8.3300000e+00   5.2214064e+01
 8.3354667e+00   5.2057300e+01
 8.3409333e+00   5.2047682e+01
 8.3464000e+00   5.2021156e+01
 8.3518667e+00   5.2022304e+01
 8.3573333e+00   5.1813189e+01
 8.3628000e+00   5.2154145e+01
 8.3682667e+00   5.1790711e+01
 8.3737333e+00   5.2103244e+01
 8.3792000e+00   5.1914899e+01
 8.3846667e+00   5.2079546e+01
 8.3901333e+00   5.1712207e+01
 8.3956000e+00   5.2101255e+01
 8.4010667e+00   5.1745286e+01
 8.4065333e+00   5.1975696e+01
 8.4120000e+00   5.1782741e+01
 8.4174667e+00   5.1984091e+01
 8.4229333e+00   5.1608914e+01
 8.4284000e+00   5.1876265e+01
 8.4338667e+00   5.1621754e+01
 8.4393333e+00   5.1671560e+01
 8.4448000e+00   5.1489061e+01
 8.4502667e+00   5.1491631e+01
 8.4557333e+00   5.1378224e+01
 8.4612000e+00   5.1426429e+01
 8.4666667e+00   5.1387365e+01
 8.4721333e+00   5.1232343e+01
 8.4776000e+00   5.1620179e+01
 8.4830667e+00   5.1101010e+01
 8.4885333e+00   5.1651908e+01
 8.4940000e+00   5.1138755e+01
 8.4994667e+00   5.1556759e+01
 8.5049333e+00   5.1032069e+01
 8.5104000e+00   5.1406229e+01
 8.5158667e+00   5.0943030e+01
 8.5213333e+00   5.1074425e+01
 8.5268000e+00   5.0935666e+01
 8.5322667e+00   5.0980778e+01
 8.5377333e+00   5.0896155e+01
 8.5432000e+00   5.0874573e+01
 8.5486667e+00   5.0892275e+01
 8.5541333e+00   5.1010957e+01
 8.5596000e+00   5.0839146e+01
 8.5650667e+00   5.0812500e+01
 8.5705333e+00   5.0858515e+01
 8.5760000e+00   5.0530703e+01
 8.5814667e+00   5.1073288e+01
 8.5869333e+00   5.0604001e+01
 8.5924000e+00   5.0802022e+01
 8.5978667e+00   5.0487518e+01
 8.6033333e+00   5.0731056e+01
 8.6088000e+00   5.0410847e+01
 8.6142667e+00   5.0650191e+01
 8.6197333e+00   5.0399736e+01
 8.6252000e+00   5.0609089e+01
 8.6306667e+00   5.0167076e+01
 8.6361333e+00   5.0311544e+01
 8.6416000e+00   5.0052074e+01
 8.6470667e+00   5.0066952e+01
 8.6525333e+00   4.9890602e+01
 8.6580000e+00   4.9873754e+01
 8.6634667e+00   4.9637903e+01
 8.6689333e+00   4.9784823e+01
 8.6744000e+00   4.9686968e+01
 8.6798667e+00   4.9669739e+01
 8.6853333e+00   4.9803787e+01
 8.6908000e+00   4.9371138e+01
 8.6962667e+00   4.9866288e+01
 8.7017333e+00   4.9289542e+01
 8.7072000e+00   5.0025864e+01
 8.7126667e+00   4.9349982e+01
 8.7181333e+00   4.9799221e+01
 8.7236000e+00   4.9442164e+01
 8.7290667e+00   4.9780843e+01
 8.7345333e+00   4.9420383e+01
 8.7400000e+00   4.9682607e+01
 8.7454667e+00   4.9153788e+01
 8.7509333e+00   4.9715371e+01
 8.7564000e+00   4.9144325e+01
 8.7618667e+00   4.9428224e+01
 8.7673333e+00   4.9083816e+01
 8.7728000e+00   4.9520663e+01
 8.7782667e+00   4.8744934e+01
 8.7837333e+00   4.9329223e+01
 8.7892000e+00   4.8977596e+01
 8.7946667e+00   4.8942150e+01
 8.8001333e+00   4.9073365e+01
 8.8056000e+00   4.8805359e+01
 8.8110667e+00   4.9026048e+01
 8.8165333e+00   4.8677442e+01
 8.8220000e+00   4.9137816e+01
 8.8274667e+00   4.8585064e+01
 8.8329333e+00   4.9242598e+01
 8.8384000e+00   4.8603709e+01
 8.8438667e+00   4.9068052e+01
 8.8493333e+00   4.8708136e+01
 8.8548000e+00   4.9217482e+01
 8.8602667e+00   4.8545882e+01
 8.8657333e+00   4.9197683e+01
 8.8712000e+00   4.8547998e+01
 8.8766667e+00   4.9101476e+01
 8.8821333e+00   4.8435979e+01
 8.8876000e+00   4.8988068e+01
 8.8930667e+00   4.8428485e+01
 8.8985333e+00   4.8981047e+01
 8.9040000e+00   4.8592007e+01
 8.9094667e+00   4.8612813e+01
 8.9149333e+00   4.8743764e+01
 8.9204000e+00   4.8577550e+01
 8.9258667e+00   4.8820797e+01
 8.9313333e+00   4.8588725e+01
 8.9368000e+00   4.8720318e+01
 8.9422667e+00   4.8373189e+01
 8.9477333e+00   4.8830431e+01
 8.9532000e+00   4.8371319e+01
 8.9586667e+00   4.8932210e+01
 8.9641333e+00   4.8144430e+01
 8.9696000e+00   4.8955663e+01
 8.9750667e+00   4.8320803e+01
 8.9805333e+00   4.9001870e+01
 8.9860000e+00   4.8816623e+01
 8.9914667e+00   5.0127377e+01
 8.9969333e+00   5.0199152e+01
 9.0024000e+00   5.2603944e+01
 9.0078667e+00   5.4381719e+01
 9.0133333e+00   5.9141959e+01
 9.0188000e+00   6.2292900e+01
 9.0242667e+00   6.8735002e+01
 9.0297333e+00   6.9392357e+01
 9.0352000e+00   7.0813031e+01
 9.0406667e+00   7.2604693e+01
 9.0461333e+00   7.2522649e+01
 9.0516000e+00   6.9854493e+01
 9.0570667e+00   6.5292941e+01
 9.0625333e+00   6.1785870e+01
 9.0680000e+00   5.7357357e+01
 9.0734667e+00   5.5200658e+01
 9.0789333e+00   5.1926815e+01
 9.0844000e+00   5.1895529e+01
 9.0898667e+00   4.9381436e+01
 9.0953333e+00   4.8765560e+01
 9.1008000e+00   4.7568431e+01
 9.1062667e+00   4.7644566e+01
 9.1117333e+00   4.6800150e+01
 9.1172000e+00   4.7243185e+01
 9.1226667e+00   4.6478141e+01
 9.1281333e+00   4.6890168e+01
 9.1336000e+00   4.6336931e+01
 9.1390667e+00   4.6632519e+01
 9.1445333e+00   4.6243279e+01
 9.1500000e+00   4.6444263e+01
 9.1554667e+00   4.6099679e+01
 9.1609333e+00   4.6074187e+01
 9.1664000e+00   4.5871414e+01
 9.1718667e+00   4.5991055e+01
 9.1773333e+00   4.5821406e+01
 9.1828000e+00   4.5688004e+01
 9.1882667e+00   4.5837276e+01
 9.1937333e+00   4.5564184e+01
 9.1992000e+00   4.5796204e+01
 9.2046667e+00   4.5344785e+01
 9.2101333e+00   4.5722400e+01
 9.2156000e+00   4.5282949e+01
 9.2210667e+00   4.5534443e+01
 9.2265333e+00   4.5365496e+01
 9.2320000e+00   4.5459683e+01
 9.2374667e+00   4.5127521e+01
 9.2429333e+00   4.5291548e+01
 9.2484000e+00   4.5041269e+01
 9.2538667e+00   4.5075940e+01
 9.2593333e+00   4.4771598e+01
 9.2648000e+00   4.5014039e+01
 9.2702667e+00   4.4781764e+01
 9.2757333e+00   4.4791048e+01
 9.2812000e+00   4.4791818e+01
 9.2866667e+00   4.4534449e+01
 9.2921333e+00   4.4822073e+01
 9.2976000e+00   4.4511891e+01
 9.3030667e+00   4.4444716e+01
 9.3085333e+00   4.4542008e+01
 9.3140000e+00   4.4462675e+01
 9.3194667e+00   4.4409126e+01
 9.3249333e+00   4.4506894e+01
 9.3304000e+00   4.4248852e+01
 9.3358667e+00   4.4664273e+01
 9.3413333e+00   4.4252246e+01
 9.3468000e+00   4.4474141e+01
 9.3522667e+00   4.4360041e+01
 9.3577333e+00   4.4492495e+01
 9.3632000e+00   4.4268323e+01
 9.3686667e+00   4.4499020e+01
 9.3741333e+00   4.4270223e+01
 9.3796000e+00   4.4311772e+01
 9.3850667e+00   4.4283285e+01
 9.3905333e+00   4.4444969e+01
 9.3960000e+00   4.4428564e+01
 9.4014667e+00   4.4538583e+01
 9.4069333e+00   4.4377773e+01
 9.4124000e+00   4.4449594e+01
 9.4178667e+00   4.4353798e+01
 9.4233333e+00   4.4586846e+01
 9.4288000e+00   4.4605715e+01
 9.4342667e+00   4.4558937e+01
 9.4397333e+00   4.4992121e+01
 9.4452000e+00   4.4519691e+01
 9.4506667e+00   4.5419857e+01
 9.4561333e+00   4.5031239e+01
 9.4616000e+00   4.6974935e+01
 9.4670667e+00   4.6051618e+01
 9.4725333e+00   5.7047944e+01
 9.4780000e+00   5.0812871e+01
 9.4834667e+00   5.8285797e+01
 9.4889333e+00   6.7772098e+01
 9.4944000e+00   6.7424009e+01
 9.4998667e+00   9.1111338e+01
 9.5053333e+00   8.7352186e+01
 9.5108000e+00   9.3608544e+01
 9.5162667e+00   8.0433556e+01
 9.5217333e+00   8.0326617e+01
 9.5272000e+00   7.9930762e+01
 9.5326667e+00   7.8637585e+01
 9.5381333e+00   8.4095063e+01
 9.5436000e+00   8.0478037e+01
 9.5490667e+00   9.3308578e+01
 9.5545333e+00   1.0565866e+02
 9.5600000e+00   1.1189580e+02
 9.5654667e+00   1.0145316e+02
 9.5709333e+00   1.0398990e+02
 9.5764000e+00   9.7513835e+01
 9.5818667e+00   8.4627239e+01
 9.5873333e+00   6.4135467e+01
 9.5928000e+00   5.4061035e+01
 9.5982667e+00   5.0224337e+01
 9.6037333e+00   4.5912328e+01
 9.6092000e+00   4.5163460e+01
 9.6146667e+00   4.4041174e+01
 9.6201333e+00   4.3561933e+01
 9.6256000e+00   4.3354756e+01
 9.6310667e+00   4.3190515e+01
 9.6365333e+00   4.2907928e+01
 9.6420000e+00   4.2686044e+01
 9.6474667e+00   4.2649365e+01
 9.6529333e+00   4.2469702e+01
 9.6584000e+00   4.2441795e+01
 9.6638667e+00   4.2352769e+01
 9.6693333e+00   4.2053734e+01
 9.6748000e+00   4.2105798e+01
 9.6802667e+00   4.2292144e+01
 9.6857333e+00   4.2051663e+01
 9.6912000e+00   4.2092351e+01
 9.6966667e+00   4.2066406e+01
 9.7021333e+00   4.1799392e+01
 9.7076000e+00   4.1910200e+01
 9.7130667e+00   4.1594394e+01
 9.7185333e+00   4.1648620e+01
 9.7240000e+00   4.1469941e+01
 9.7294667e+00   4.1391519e+01
 9.7349333e+00   4.1564896e+01
 9.7404000e+00   4.1316563e+01
 9.7458667e+00   4.1190124e+01
 9.7513333e+00   4.0984125e+01
 9.7568000e+00   4.1131825e+01
 9.7622667e+00   4.0876098e+01
 9.7677333e+00   4.0717167e+01
 9.7732000e+00   4.0928446e+01
 9.7786667e+00   4.0666307e+01
 9.7841333e+00   4.0605078e+01
 9.7896000e+00   4.0577674e+01
 9.7950667e+00   4.0629914e+01
 9.8005333e+00   4.0307076e+01
 9.8060000e+00   4.0701766e+01
 9.8114667e+00   4.0223787e+01
 9.8169333e+00   4.0470440e+01
 9.8224000e+00   4.0489124e+01
 9.8278667e+00   4.0414974e+01
 9.8333333e+00   4.0581382e+01
 9.8388000e+00   4.0588209e+01
 9.8442667e+00   4.0638218e+01
 9.8497333e+00   4.0646276e+01
 9.8552000e+00   4.0716914e+01
 9.8606667e+00   4.0866710e+01
 9.8661333e+00   4.0709313e+01
 9.8716000e+00   4.0855139e+01
 9.8770667e+00   4.1083274e+01
 9.8825333e+00   4.0738116e+01
 9.8880000e+00   4.1273717e+01
 9.8934667e+00   4.1624394e+01
 9.8989333e+00   4.1560489e+01
 9.9044000e+00   4.2507002e+01
 9.9098667e+00   4.3049544e+01
 9.9153333e+00   4.7526111e+01
 9.9208000e+00   4.6864620e+01
 9.9262667e+00   5.2587123e+01
 9.9317333e+00   5.2974051e+01
 9.9372000e+00   6.3253957e+01
 9.9426667e+00   7.2232738e+01
 9.9481333e+00   6.2399841e+01
 9.9536000e+00   8.2023785e+01
 9.9590667e+00   6.5929928e+01
 9.9645333e+00   6.8352812e+01
 9.9700000e+00   6.9148950e+01
 9.9754667e+00   6.2949948e+01
 9.9809333e+00   6.7843707e+01
 9.9864000e+00   6.8204063e+01
 9.9918667e+00   6.1019156e+01
 9.9973333e+00   6.0454124e+01
 1.0002800e+01   4.8624054e+01
 1.0008267e+01   4.5142839e+01
 1.0013733e+01   4.4609338e+01
 1.0019200e+01   4.2999594e+01
 1.0024667e+01   4.1572957e+01
 1.0030133e+01   4.1437822e+01
 1.0035600e+01   4.1263124e+01
 1.0041067e+01   4.0994056e+01
 1.0046533e+01   4.1117200e+01
 1.0052000e+01   4.1042036e+01
 1.0057467e+01   4.1444352e+01
 1.0062933e+01   4.1720170e+01
 1.0068400e+01   4.3533530e+01
 1.0073867e+01   4.5041249e+01
 1.0079333e+01   4.7082042e+01
 1.0084800e+01   5.0031569e+01
 1.0090267e+01   5.5090275e+01
 1.0095733e+01   5.8324552e+01
 1.0101200e+01   6.3856036e+01
 1.0106667e+01   7.3845345e+01
 1.0112133e+01   7.9799297e+01
 1.0117600e+01   7.8618793e+01
 1.0123067e+01   6.9684775e+01
 1.0128533e+01   6.9671028e+01
 1.0134000e+01   5.8524616e+01
 1.0139467e+01   5.2945289e+01
 1.0144933e+01   4.8169120e+01
 1.0150400e+01   4.4547988e+01
 1.0155867e+01   4.2422620e+01
 1.0161333e+01   4.0937786e+01
 1.0166800e+01   3.9896794e+01
 1.0172267e+01   3.9627384e+01
 1.0177733e+01   3.9245452e+01
 1.0183200e+01   3.8962400e+01
 1.0188667e+01   3.8855286e+01
 1.0194133e+01   3.8745617e+01
 1.0199600e+01   3.8638123e+01
 1.0205067e+01   3.8411281e+01
 1.0210533e+01   3.8499030e+01
 1.0216000e+01   3.8399853e+01
 1.0221467e+01   3.8218308e+01
 1.0226933e+01   3.8204104e+01
 1.0232400e+01   3.8286315e+01
 1.0237867e+01   3.8110764e+01
 1.0243333e+01   3.8072798e+01
 1.0248800e+01   3.7997097e+01
 1.0254267e+01   3.7822090e+01
 1.0259733e+01   3.7606173e+01
 1.0265200e+01   3.7838034e+01
 1.0270667e+01   3.7467758e+01
 1.0276133e+01   3.7808321e+01
 1.0281600e+01   3.7505790e+01
 1.0287067e+01   3.7648147e+01
 1.0292533e+01   3.7390995e+01
 1.0298000e+01   3.7478395e+01
 1.0303467e+01   3.7299168e+01
 1.0308933e+01   3.7271887e+01
 1.0314400e+01   3.7032783e+01
 1.0319867e+01   3.7288608e+01
 1.0325333e+01   3.7084464e+01
 1.0330800e+01   3.7338527e+01
 1.0336267e+01   3.6847755e+01
 1.0341733e+01   3.7204063e+01
 1.0347200e+01   3.7068831e+01
 1.0352667e+01   3.6999562e+01
 1.0358133e+01   3.6917163e+01
 1.0363600e+01   3.7014579e+01
 1.0369067e+01   3.6778790e+01
 1.0374533e+01   3.7030953e+01
 1.0380000e+01   3.6955942e+01
 1.0385467e+01   3.7115014e+01
 1.0390933e+01   3.6771863e+01
 1.0396400e+01   3.6949307e+01
 1.0401867e+01   3.6951785e+01
 1.0407333e+01   3.6680517e+01
 1.0412800e+01   3.6925666e+01
 1.0418267e+01   3.6805307e+01
 1.0423733e+01   3.6868906e+01
 1.0429200e+01   3.6658762e+01
 1.0434667e+01   3.6847840e+01
 1.0440133e+01   3.6640537e+01
 1.0445600e+01   3.6695009e+01
 1.0451067e+01   3.6664430e+01
 1.0456533e+01   3.6522100e+01
 1.0462000e+01   3.6474008e+01
 1.0467467e+01   3.6358159e+01
 1.0472933e+01   3.6398641e+01
 1.0478400e+01   3.6285207e+01
 1.0483867e+01   3.6393760e+01
 1.0489333e+01   3.6376358e+01
 1.0494800e+01   3.6334505e+01
 1.0500267e+01   3.6368887e+01
 1.0505733e+01   3.6356359e+01
 1.0511200e+01   3.6319660e+01
 1.0516667e+01   3.6384690e+01
 1.0522133e+01   3.6234603e+01
 1.0527600e+01   3.6459736e+01
 1.0533067e+01   3.6321335e+01
 1.0538533e+01   3.6273942e+01
 1.0544000e+01   3.6366708e+01
 1.0549467e+01   3.6468739e+01
 1.0554933e+01   3.6271905e+01
 1.0560400e+01   3.6547573e+01
 1.0565867e+01   3.6346458e+01
 1.0571333e+01   3.6344827e+01
 1.0576800e+01   3.6357615e+01
 1.0582267e+01   3.6234236e+01
 1.0587733e+01   3.6315185e+01
 1.0593200e+01   3.6054998e+01
 1.0598667e+01   3.6151258e+01
 1.0604133e+01   3.6078468e+01
 1.0609600e+01   3.6344620e+01
 1.0615067e+01   3.6184535e+01
 1.0620533e+01   3.6213718e+01
 1.0626000e+01   3.6271483e+01
 1.0631467e+01   3.6252804e+01
 1.0636933e+01   3.6115693e+01
 1.0642400e+01   3.6261076e+01
 1.0647867e+01   3.6043764e+01
 1.0653333e+01   3.6114131e+01
 1.0658800e+01   3.6135497e+01
 1.0664267e+01   3.6235986e+01
 1.0669733e+01   3.6022785e+01
 1.0675200e+01   3.6145922e+01
 1.0680667e+01   3.5852277e+01
 1.0686133e+01   3.6311751e+01
 1.0691600e+01   3.5957020e+01
 1.0697067e+01   3.6348841e+01
 1.0702533e+01   3.5940458e+01
 1.0708000e+01   3.6499561e+01
 1.0713467e+01   3.6073432e+01
 1.0718933e+01   3.6442753e+01
 1.0724400e+01   3.6179929e+01
 1.0729867e+01   3.6282316e+01
 1.0735333e+01   3.6201255e+01
 1.0740800e+01   3.6175220e+01
 1.0746267e+01   3.6170796e+01
 1.0751733e+01   3.6017641e+01
 1.0757200e+01   3.6018159e+01
 1.0762667e+01   3.5970562e+01
 1.0768133e+01   3.5957152e+01
 1.0773600e+01   3.5881423e+01
 1.0779067e+01   3.5988383e+01
 1.0784533e+01   3.5922232e+01
 1.0790000e+01   3.5981477e+01
 1.0795467e+01   3.6031186e+01
 1.0800933e+01   3.5992663e+01
 1.0806400e+01   3.6017507e+01
 1.0811867e+01   3.6030317e+01
 1.0817333e+01   3.5704133e+01
 1.0822800e+01   3.6019820e+01
 1.0828267e+01   3.5926677e+01
 1.0833733e+01   3.6164175e+01
 1.0839200e+01   3.5850260e+01
 1.0844667e+01   3.6256948e+01
 1.0850133e+01   3.5973152e+01
 1.0855600e+01   3.6241886e+01
 1.0861067e+01   3.5903978e+01
 1.0866533e+01   3.6121256e+01
 1.0872000e+01   3.5944440e+01
 1.0877467e+01   3.6034912e+01
 1.0882933e+01   3.6080272e+01
 1.0888400e+01   3.6055555e+01
 1.0893867e+01   3.5794172e+01
 1.0899333e+01   3.6318775e+01
 1.0904800e+01   3.5895522e+01
 1.0910267e+01   3.6024749e+01
 1.0915733e+01   3.6059958e+01
 1.0921200e+01   3.5946952e+01
 1.0926667e+01   3.6032354e+01
 1.0932133e+01   3.6179832e+01
 1.0937600e+01   3.6149710e+01
 1.0943067e+01   3.5997887e+01
 1.0948533e+01   3.6280416e+01
 1.0954000e+01   3.6140211e+01
 1.0959467e+01   3.6383197e+01
 1.0964933e+01   3.5797107e+01
 1.0970400e+01   3.6474891e+01
 1.0975867e+01   3.5967320e+01
 1.0981333e+01   3.6390544e+01
 1.0986800e+01   3.6106039e+01
 1.0992267e+01   3.6405264e+01
 1.0997733e+01   3.6174720e+01
 1.1003200e+01   3.6673497e+01
 1.1008667e+01   3.6072436e+01
 1.1014133e+01   3.6911511e+01
 1.1019600e+01   3.6383033e+01
 1.1025067e+01   3.6730852e+01
 1.1030533e+01   3.6544832e+01
 1.1036000e+01   3.7072727e+01
 1.1041467e+01   3.6769139e+01
 1.1046933e+01   3.7744150e+01
 1.1052400e+01   3.7720626e+01
 1.1057867e+01   3.8987218e+01
 1.1063333e+01   3.9283292e+01
 1.1068800e+01   3.9943898e+01
 1.1074267e+01   3.9747964e+01
 1.1079733e+01   3.9934958e+01
 1.1085200e+01   3.9705445e+01
 1.1090667e+01   3.9602297e+01
 1.1096133e+01   3.8683626e+01
 1.1101600e+01   3.8366156e+01
 1.1107067e+01   3.8166194e+01
 1.1112533e+01   3.7541021e+01
 1.1118000e+01   3.7194595e+01
 1.1123467e+01   3.7163325e+01
 1.1128933e+01   3.7136452e+01
 1.1134400e+01   3.6506309e+01
 1.1139867e+01   3.6992690e+01
 1.1145333e+01   3.6668665e+01
 1.1150800e+01   3.6641272e+01
 1.1156267e+01   3.6662089e+01
 1.1161733e+01   3.6787506e+01
 1.1167200e+01   3.6645571e+01
 1.1172667e+01   3.6548446e+01
 1.1178133e+01   3.6493233e+01
 1.1183600e+01   3.6706637e+01
 1.1189067e+01   3.6329012e+01
 1.1194533e+01   3.6719055e+01
