PWDR ff_004431_sum_norm_dc_0.tif Azm= 352.fxye Bank 1
2-Theta Angle (Degrees)
Intensity
       1500
 3.0000000e+00   4.6277202e+01
 3.0054667e+00   4.6127549e+01
 3.0109333e+00   4.6057279e+01
 3.0164000e+00   4.5938196e+01
 3.0218667e+00   4.5652111e+01
 3.0273333e+00   4.5563903e+01
 3.0328000e+00   4.5485620e+01
 3.0382667e+00   4.5291959e+01
 3.0437333e+00   4.4980073e+01
 3.0492000e+00   4.4927810e+01
 3.0546667e+00   4.4614373e+01
 3.0601333e+00   4.4648520e+01
 3.0656000e+00   4.4677926e+01
 3.0710667e+00   4.3758240e+01
 3.0765333e+00   4.3766409e+01
 3.0820000e+00   4.3324845e+01
 3.0874667e+00   4.3118408e+01
 3.0929333e+00   4.2875262e+01
 3.0984000e+00   4.2754260e+01
 3.1038667e+00   4.2631157e+01
 3.1093333e+00   4.2496367e+01
 3.1148000e+00   4.2249636e+01
 3.1202667e+00   4.2297930e+01
 3.1257333e+00   4.2059819e+01
 3.1312000e+00   4.1745331e+01
 3.1366667e+00   4.1791247e+01
 3.1421333e+00   4.1641439e+01
 3.1476000e+00   4.1460553e+01
 3.1530667e+00   4.1356067e+01
 3.1585333e+00   4.0969905e+01
 3.1640000e+00   4.1209624e+01
 3.1694667e+00   4.0700740e+01
 3.1749333e+00   4.0968627e+01
 3.1804000e+00   4.0512692e+01
 3.1858667e+00   4.0580269e+01
 3.1913333e+00   4.0137469e+01
 3.1968000e+00   4.0234760e+01
 3.2022667e+00   3.9979154e+01
 3.2077333e+00   4.0032149e+01
 3.2132000e+00   3.9855895e+01
 3.2186667e+00   3.9872816e+01
 3.2241333e+00   3.9698275e+01
 3.2296000e+00   3.9557991e+01
 3.2350667e+00   3.9423377e+01
 3.2405333e+00   3.9436421e+01
 3.2460000e+00   3.9121670e+01
 3.2514667e+00   3.9053666e+01
 3.2569333e+00   3.8808456e+01
 3.2624000e+00   3.8887133e+01
 3.2678667e+00   3.8748822e+01
 3.2733333e+00   3.8681726e+01
 3.2788000e+00   3.8543092e+01
 3.2842667e+00   3.8607264e+01
 3.2897333e+00   3.8357994e+01
 3.2952000e+00   3.8252209e+01
 3.3006667e+00   3.8237700e+01
 3.3061333e+00   3.8099328e+01
 3.3116000e+00   3.8059933e+01
 3.3170667e+00   3.8121922e+01
 3.3225333e+00   3.8033354e+01
 3.3280000e+00   3.7783851e+01
 3.3334667e+00   3.7762763e+01
 3.3389333e+00   3.7800984e+01
 3.3444000e+00   3.7790021e+01
 3.3498667e+00   3.7638406e+01
 3.3553333e+00   3.7696695e+01
 3.3608000e+00   3.7521374e+01
 3.3662667e+00   3.7541520e+01
 3.3717333e+00   3.7255162e+01
 3.3772000e+00   3.7234397e+01
 3.3826667e+00   3.7223549e+01
 3.3881333e+00   3.7303721e+01
 3.3936000e+00   3.7070997e+01
 3.3990667e+00   3.7122305e+01
 3.4045333e+00   3.6841581e+01
 3.4100000e+00   3.7004030e+01
 3.4154667e+00   3.6745712e+01
 3.4209333e+00   3.6923804e+01
 3.4264000e+00   3.6696774e+01
 3.4318667e+00   3.6898651e+01
 3.4373333e+00   3.6704955e+01
 3.4428000e+00   3.6687779e+01
 3.4482667e+00   3.6464774e+01
 3.4537333e+00   3.6632533e+01
 3.4592000e+00   3.6349900e+01
 3.4646667e+00   3.6615699e+01
 3.4701333e+00   3.6486750e+01
 3.4756000e+00   3.6465631e+01
 3.4810667e+00   3.6422137e+01
 3.4865333e+00   3.6447775e+01
 3.4920000e+00   3.6418059e+01
 3.4974667e+00   3.6417422e+01
 3.5029333e+00   3.6398147e+01
 3.5084000e+00   3.6379144e+01
 3.5138667e+00   3.6414007e+01
 3.5193333e+00   3.6356651e+01
 3.5248000e+00   3.6335442e+01
 3.5302667e+00   3.6525888e+01
 3.5357333e+00   3.6176185e+01
 3.5412000e+00   3.6601282e+01
 3.5466667e+00   3.6299970e+01
 3.5521333e+00   3.6732680e+01
 3.5576000e+00   3.6324764e+01
 3.5630667e+00   3.6650061e+01
 3.5685333e+00   3.6477789e+01
 3.5740000e+00   3.6544703e+01
 3.5794667e+00   3.6338811e+01
 3.5849333e+00   3.6279270e+01
 3.5904000e+00   3.6287083e+01
 3.5958667e+00   3.6312051e+01
 3.6013333e+00   3.6230493e+01
 3.6068000e+00   3.6335232e+01
 3.6122667e+00   3.6174846e+01
 3.6177333e+00   3.6073410e+01
 3.6232000e+00   3.6129662e+01
 3.6286667e+00   3.6091711e+01
 3.6341333e+00   3.6253388e+01
 3.6396000e+00   3.6142986e+01
 3.6450667e+00   3.6247428e+01
 3.6505333e+00   3.5977530e+01
 3.6560000e+00   3.6356612e+01
 3.6614667e+00   3.6111360e+01
 3.6669333e+00   3.6439018e+01
 3.6724000e+00   3.6290758e+01
 3.6778667e+00   3.6257922e+01
 3.6833333e+00   3.6252083e+01
 3.6888000e+00   3.6432964e+01
 3.6942667e+00   3.6493829e+01
 3.6997333e+00   3.6358346e+01
 3.7052000e+00   3.6512991e+01
 3.7106667e+00   3.6425632e+01
 3.7161333e+00   3.6434569e+01
 3.7216000e+00   3.6523922e+01
 3.7270667e+00   3.6530303e+01
 3.7325333e+00   3.6541263e+01
 3.7380000e+00   3.6590906e+01
 3.7434667e+00   3.6595650e+01
 3.7489333e+00   3.6534660e+01
 3.7544000e+00   3.6570821e+01
 3.7598667e+00   3.6702763e+01
 3.7653333e+00   3.6589774e+01
 3.7708000e+00   3.6658306e+01
 3.7762667e+00   3.6800960e+01
 3.7817333e+00   3.6751874e+01
 3.7872000e+00   3.6823626e+01
 3.7926667e+00   3.6943560e+01
 3.7981333e+00   3.6888141e+01
 3.8036000e+00   3.6997355e+01
 3.8090667e+00   3.7206646e+01
 3.8145333e+00   3.7065915e+01
 3.8200000e+00   3.7172408e+01
 3.8254667e+00   3.7316027e+01
 3.8309333e+00   3.7573393e+01
 3.8364000e+00   3.7438326e+01
 3.8418667e+00   3.7604965e+01
 3.8473333e+00   3.7649815e+01
 3.8528000e+00   3.7624438e+01
 3.8582667e+00   3.7790480e+01
 3.8637333e+00   3.7749331e+01
 3.8692000e+00   3.7819013e+01
 3.8746667e+00   3.7918436e+01
 3.8801333e+00   3.8151876e+01
 3.8856000e+00   3.8078907e+01
 3.8910667e+00   3.8402834e+01
 3.8965333e+00   3.8468390e+01
 3.9020000e+00   3.8684742e+01
 3.9074667e+00   3.8795680e+01
 3.9129333e+00   3.8998723e+01
 3.9184000e+00   3.9095502e+01
 3.9238667e+00   3.9131675e+01
 3.9293333e+00   3.9328885e+01
 3.9348000e+00   3.9546947e+01
 3.9402667e+00   3.9482910e+01
 3.9457333e+00   3.9525088e+01
 3.9512000e+00   3.9561271e+01
 3.9566667e+00   3.9485970e+01
 3.9621333e+00   3.9696453e+01
 3.9676000e+00   3.9613749e+01
 3.9730667e+00   3.9940871e+01
 3.9785333e+00   3.9726677e+01
 3.9840000e+00   4.0028091e+01
 3.9894667e+00   3.9959972e+01
 3.9949333e+00   4.0173376e+01
 4.0004000e+00   4.0276906e+01
 4.0058667e+00   4.0492246e+01
 4.0113333e+00   4.0559938e+01
 4.0168000e+00   4.0855793e+01
 4.0222667e+00   4.1160849e+01
 4.0277333e+00   4.1374948e+01
 4.0332000e+00   4.1744704e+01
 4.0386667e+00   4.2277147e+01
 4.0441333e+00   4.3027500e+01
 4.0496000e+00   4.3817511e+01
 4.0550667e+00   4.5661887e+01
 4.0605333e+00   4.7889713e+01
 4.0660000e+00   5.3687615e+01
 4.0714667e+00   6.1597890e+01
 4.0769333e+00   7.6033814e+01
 4.0824000e+00   9.0534277e+01
 4.0878667e+00   1.1496981e+02
 4.0933333e+00   1.4215314e+02
 4.0988000e+00   1.8024115e+02
 4.1042667e+00   2.0675236e+02
 4.1097333e+00   2.3302038e+02
 4.1152000e+00   2.4589725e+02
 4.1206667e+00   2.4220899e+02
 4.1261333e+00   2.2820063e+02
 4.1316000e+00   2.0414148e+02
 4.1370667e+00   1.7525596e+02
 4.1425333e+00   1.4177659e+02
 4.1480000e+00   1.1296323e+02
 4.1534667e+00   9.2725049e+01
 4.1589333e+00   7.5056381e+01
 4.1644000e+00   6.2992339e+01
 4.1698667e+00   5.5724305e+01
 4.1753333e+00   5.0747208e+01
 4.1808000e+00   4.8677810e+01
 4.1862667e+00   4.7499556e+01
 4.1917333e+00   4.6700385e+01
 4.1972000e+00   4.6431427e+01
 4.2026667e+00   4.6064594e+01
 4.2081333e+00   4.5871712e+01
 4.2136000e+00   4.5781779e+01
 4.2190667e+00   4.5875183e+01
 4.2245333e+00   4.5516570e+01
 4.2300000e+00   4.5505227e+01
 4.2354667e+00   4.5408582e+01
 4.2409333e+00   4.5391221e+01
 4.2464000e+00   4.5465342e+01
 4.2518667e+00   4.5414024e+01
 4.2573333e+00   4.5561891e+01
 4.2628000e+00   4.5635104e+01
 4.2682667e+00   4.5666119e+01
 4.2737333e+00   4.5734134e+01
 4.2792000e+00   4.5821295e+01
 4.2846667e+00   4.5894117e+01
 4.2901333e+00   4.6043114e+01
 4.2956000e+00   4.5952647e+01
 4.3010667e+00   4.6600969e+01
 4.3065333e+00   4.6152837e+01
 4.3120000e+00   4.8437058e+01
 4.3174667e+00   4.6424021e+01
 4.3229333e+00   4.7086825e+01
 4.3284000e+00   4.6624179e+01
 4.3338667e+00   4.6915379e+01
 4.3393333e+00   4.7027840e+01
 4.3448000e+00   4.7240495e+01
 4.3502667e+00   4.7462688e+01
 4.3557333e+00   4.7621315e+01
 4.3612000e+00   4.7926363e+01
 4.3666667e+00   4.8221837e+01
 4.3721333e+00   4.8613433e+01
 4.3776000e+00   4.8898420e+01
 4.3830667e+00   4.9574562e+01
 4.3885333e+00   5.0004949e+01
 4.3940000e+00   5.1087623e+01
 4.3994667e+00   5.2332909e+01
 4.4049333e+00   5.5328204e+01
 4.4104000e+00   6.0232934e+01
 4.4158667e+00   6.9999877e+01
 4.4213333e+00   8.5155839e+01
 4.4268000e+00   1.0606422e+02
 4.4322667e+00   1.3720419e+02
 4.4377333e+00   1.7588264e+02
 4.4432000e+00   2.1946463e+02
 4.4486667e+00   2.6110095e+02
 4.4541333e+00   3.0139604e+02
 4.4596000e+00   3.2990468e+02
 4.4650667e+00   3.3045725e+02
 4.4705333e+00   3.0919543e+02
 4.4760000e+00   2.6949630e+02
 4.4814667e+00   2.2651452e+02
 4.4869333e+00   1.7993866e+02
 4.4924000e+00   1.4369149e+02
 4.4978667e+00   1.2414852e+02
 4.5033333e+00   1.1112412e+02
 4.5088000e+00   1.1394604e+02
 4.5142667e+00   1.1470687e+02
 4.5197333e+00   1.2658572e+02
 4.5252000e+00   1.4131447e+02
 4.5306667e+00   1.5886031e+02
 4.5361333e+00   1.7363502e+02
 4.5416000e+00   1.8828071e+02
 4.5470667e+00   1.9086531e+02
 4.5525333e+00   1.8881161e+02
 4.5580000e+00   1.7474404e+02
 4.5634667e+00   1.5973457e+02
 4.5689333e+00   1.3830291e+02
 4.5744000e+00   1.2245783e+02
 4.5798667e+00   1.0464618e+02
 4.5853333e+00   9.3338572e+01
 4.5908000e+00   8.5907553e+01
 4.5962667e+00   7.8387889e+01
 4.6017333e+00   7.5028473e+01
 4.6072000e+00   7.3111130e+01
 4.6126667e+00   7.3872072e+01
 4.6181333e+00   7.7383399e+01
 4.6236000e+00   8.5085725e+01
 4.6290667e+00   1.0077301e+02
 4.6345333e+00   1.3160884e+02
 4.6400000e+00   1.7687238e+02
 4.6454667e+00   2.5070557e+02
 4.6509333e+00   3.4381408e+02
 4.6564000e+00   4.6349325e+02
 4.6618667e+00   5.8891253e+02
 4.6673333e+00   7.1303941e+02
 4.6728000e+00   8.0803615e+02
 4.6782667e+00   8.9408346e+02
 4.6837333e+00   9.1724852e+02
 4.6892000e+00   8.9884649e+02
 4.6946667e+00   8.0218854e+02
 4.7001333e+00   7.0782144e+02
 4.7056000e+00   5.7416163e+02
 4.7110667e+00   4.5194471e+02
 4.7165333e+00   3.3927324e+02
 4.7220000e+00   2.4656889e+02
 4.7274667e+00   1.7547211e+02
 4.7329333e+00   1.2628933e+02
 4.7384000e+00   9.5268799e+01
 4.7438667e+00   7.8177645e+01
 4.7493333e+00   6.9721429e+01
 4.7548000e+00   6.5440527e+01
 4.7602667e+00   6.2093968e+01
 4.7657333e+00   6.0735610e+01
 4.7712000e+00   5.8947258e+01
 4.7766667e+00   5.7943001e+01
 4.7821333e+00   5.6960876e+01
 4.7876000e+00   5.6441495e+01
 4.7930667e+00   5.5671277e+01
 4.7985333e+00   5.5303119e+01
 4.8040000e+00   5.5213525e+01
 4.8094667e+00   5.4693240e+01
 4.8149333e+00   5.4685640e+01
 4.8204000e+00   5.4681906e+01
 4.8258667e+00   5.4053445e+01
 4.8313333e+00   5.4081029e+01
 4.8368000e+00   5.3793424e+01
 4.8422667e+00   5.3809384e+01
 4.8477333e+00   5.3934524e+01
 4.8532000e+00   5.3799606e+01
 4.8586667e+00   5.3912723e+01
 4.8641333e+00   5.3845051e+01
 4.8696000e+00   5.4511116e+01
 4.8750667e+00   5.3870329e+01
 4.8805333e+00   5.5096641e+01
 4.8860000e+00   5.4494640e+01
 4.8914667e+00   5.5371475e+01
 4.8969333e+00   5.5390594e+01
 4.9024000e+00   5.6254831e+01
 4.9078667e+00   5.6118591e+01
 4.9133333e+00   5.7828344e+01
 4.9188000e+00   5.8575280e+01
 4.9242667e+00   6.0393536e+01
 4.9297333e+00   6.2559042e+01
 4.9352000e+00   6.8295385e+01
 4.9406667e+00   8.1958766e+01
 4.9461333e+00   8.7301713e+01
 4.9516000e+00   1.2710246e+02
 4.9570667e+00   1.2775892e+02
 4.9625333e+00   1.9647116e+02
 4.9680000e+00   2.0462237e+02
 4.9734667e+00   3.5486437e+02
 4.9789333e+00   3.0444035e+02
 4.9844000e+00   4.0763661e+02
 4.9898667e+00   4.0790560e+02
 4.9953333e+00   3.8950147e+02
 5.0008000e+00   4.3042554e+02
 5.0062667e+00   3.2857874e+02
 5.0117333e+00   3.4615872e+02
 5.0172000e+00   2.6113015e+02
 5.0226667e+00   2.3540287e+02
 5.0281333e+00   2.3043156e+02
 5.0336000e+00   1.4380104e+02
 5.0390667e+00   1.3555098e+02
 5.0445333e+00   9.0043987e+01
 5.0500000e+00   7.5940886e+01
 5.0554667e+00   6.7908264e+01
 5.0609333e+00   6.3134889e+01
 5.0664000e+00   5.9752792e+01
 5.0718667e+00   5.8813190e+01
 5.0773333e+00   5.6602351e+01
 5.0828000e+00   5.5870174e+01
 5.0882667e+00   5.4634672e+01
 5.0937333e+00   5.4126693e+01
 5.0992000e+00   5.3193677e+01
 5.1046667e+00   5.2536584e+01
 5.1101333e+00   5.2231966e+01
 5.1156000e+00   5.1542625e+01
 5.1210667e+00   5.0773368e+01
 5.1265333e+00   5.0871765e+01
 5.1320000e+00   4.9881256e+01
 5.1374667e+00   5.0132271e+01
 5.1429333e+00   4.9208179e+01
 5.1484000e+00   4.9050440e+01
 5.1538667e+00   4.8694777e+01
 5.1593333e+00   4.8479012e+01
 5.1648000e+00   4.8298654e+01
 5.1702667e+00   4.7805698e+01
 5.1757333e+00   4.7800355e+01
 5.1812000e+00   4.7301683e+01
 5.1866667e+00   4.7147615e+01
 5.1921333e+00   4.6758782e+01
 5.1976000e+00   4.6565668e+01
 5.2030667e+00   4.6291277e+01
 5.2085333e+00   4.6329744e+01
 5.2140000e+00   4.5855809e+01
 5.2194667e+00   4.5651237e+01
 5.2249333e+00   4.5443206e+01
 5.2304000e+00   4.5290972e+01
 5.2358667e+00   4.5004987e+01
 5.2413333e+00   4.5078406e+01
 5.2468000e+00   4.4808035e+01
 5.2522667e+00   4.4622726e+01
 5.2577333e+00   4.4564932e+01
 5.2632000e+00   4.4400400e+01
 5.2686667e+00   4.4428469e+01
 5.2741333e+00   4.4227145e+01
 5.2796000e+00   4.4200005e+01
 5.2850667e+00   4.3936481e+01
 5.2905333e+00   4.3889958e+01
 5.2960000e+00   4.3587042e+01
 5.3014667e+00   4.3567251e+01
 5.3069333e+00   4.3483325e+01
 5.3124000e+00   4.3417154e+01
 5.3178667e+00   4.3269308e+01
 5.3233333e+00   4.3122642e+01
 5.3288000e+00   4.2977864e+01
 5.3342667e+00   4.2786368e+01
 5.3397333e+00   4.2770025e+01
 5.3452000e+00   4.2777370e+01
 5.3506667e+00   4.2911905e+01
 5.3561333e+00   4.2564885e+01
 5.3616000e+00   4.2427467e+01
 5.3670667e+00   4.2493467e+01
 5.3725333e+00   4.2404376e+01
 5.3780000e+00   4.2602515e+01
 5.3834667e+00   4.2312445e+01
 5.3889333e+00   4.2937102e+01
 5.3944000e+00   4.1954121e+01
 5.3998667e+00   4.2007773e+01
 5.4053333e+00   4.1858929e+01
 5.4108000e+00   4.1921989e+01
 5.4162667e+00   4.1761026e+01
 5.4217333e+00   4.1812501e+01
 5.4272000e+00   4.1490810e+01
 5.4326667e+00   4.1634499e+01
 5.4381333e+00   4.1385063e+01
 5.4436000e+00   4.1374129e+01
 5.4490667e+00   4.1408931e+01
 5.4545333e+00   4.1545331e+01
 5.4600000e+00   4.1154069e+01
 5.4654667e+00   4.1204643e+01
 5.4709333e+00   4.1156284e+01
 5.4764000e+00   4.1036335e+01
 5.4818667e+00   4.1139012e+01
 5.4873333e+00   4.1192320e+01
 5.4928000e+00   4.1115940e+01
 5.4982667e+00   4.0910652e+01
 5.5037333e+00   4.1027025e+01
 5.5092000e+00   4.0816192e+01
 5.5146667e+00   4.1028455e+01
 5.5201333e+00   4.1057626e+01
 5.5256000e+00   4.1192634e+01
 5.5310667e+00   4.1077604e+01
 5.5365333e+00   4.1203034e+01
 5.5420000e+00   4.1093030e+01
 5.5474667e+00   4.1011154e+01
 5.5529333e+00   4.1082114e+01
 5.5584000e+00   4.1086180e+01
 5.5638667e+00   4.1131174e+01
 5.5693333e+00   4.1174132e+01
 5.5748000e+00   4.1052669e+01
 5.5802667e+00   4.1048209e+01
 5.5857333e+00   4.1045528e+01
 5.5912000e+00   4.1221522e+01
 5.5966667e+00   4.1192187e+01
 5.6021333e+00   4.1129603e+01
 5.6076000e+00   4.1440230e+01
 5.6130667e+00   4.1175753e+01
 5.6185333e+00   4.1336618e+01
 5.6240000e+00   4.1526131e+01
 5.6294667e+00   4.1511669e+01
 5.6349333e+00   4.1604001e+01
 5.6404000e+00   4.1800159e+01
 5.6458667e+00   4.1666264e+01
 5.6513333e+00   4.1785999e+01
 5.6568000e+00   4.2101642e+01
 5.6622667e+00   4.2320353e+01
 5.6677333e+00   4.2824636e+01
 5.6732000e+00   4.2720643e+01
 5.6786667e+00   4.3800932e+01
 5.6841333e+00   4.4295697e+01
 5.6896000e+00   4.5825053e+01
 5.6950667e+00   4.8099021e+01
 5.7005333e+00   5.4454913e+01
 5.7060000e+00   7.1767358e+01
 5.7114667e+00   7.0411209e+01
 5.7169333e+00   1.0615683e+02
 5.7224000e+00   1.1000557e+02
 5.7278667e+00   1.0980540e+02
 5.7333333e+00   1.4228641e+02
 5.7388000e+00   1.4018025e+02
 5.7442667e+00   1.4507080e+02
 5.7497333e+00   1.9185189e+02
 5.7552000e+00   1.8859040e+02
 5.7606667e+00   1.9358128e+02
 5.7661333e+00   1.9856524e+02
 5.7716000e+00   1.8376460e+02
 5.7770667e+00   1.8693371e+02
 5.7825333e+00   1.3942098e+02
 5.7880000e+00   1.4230004e+02
 5.7934667e+00   1.3180445e+02
 5.7989333e+00   1.1442677e+02
 5.8044000e+00   9.2534508e+01
 5.8098667e+00   1.0090006e+02
 5.8153333e+00   6.2064956e+01
 5.8208000e+00   6.4753573e+01
 5.8262667e+00   5.1061389e+01
 5.8317333e+00   4.6463170e+01
 5.8372000e+00   4.4836173e+01
 5.8426667e+00   4.3860804e+01
 5.8481333e+00   4.2408709e+01
 5.8536000e+00   4.2583831e+01
 5.8590667e+00   4.1572366e+01
 5.8645333e+00   4.1691815e+01
 5.8700000e+00   4.1169240e+01
 5.8754667e+00   4.1204427e+01
 5.8809333e+00   4.0916885e+01
 5.8864000e+00   4.0710580e+01
 5.8918667e+00   4.0307393e+01
 5.8973333e+00   4.0247025e+01
 5.9028000e+00   4.0110892e+01
 5.9082667e+00   4.0060503e+01
 5.9137333e+00   3.9906165e+01
 5.9192000e+00   3.9778788e+01
 5.9246667e+00   3.9682114e+01
 5.9301333e+00   3.9708123e+01
 5.9356000e+00   3.9513380e+01
 5.9410667e+00   3.9430448e+01
 5.9465333e+00   3.9591716e+01
 5.9520000e+00   3.9309678e+01
 5.9574667e+00   3.9531611e+01
 5.9629333e+00   3.9472942e+01
 5.9684000e+00   3.9435152e+01
 5.9738667e+00   3.9434054e+01
 5.9793333e+00   3.9929572e+01
 5.9848000e+00   3.9869762e+01
 5.9902667e+00   3.9699865e+01
 5.9957333e+00   4.0394895e+01
 6.0012000e+00   3.9984077e+01
 6.0066667e+00   4.0796797e+01
 6.0121333e+00   4.1350710e+01
 6.0176000e+00   4.3209227e+01
 6.0230667e+00   4.5820160e+01
 6.0285333e+00   5.1089798e+01
 6.0340000e+00   5.9635727e+01
 6.0394667e+00   7.2091912e+01
 6.0449333e+00   8.6354114e+01
 6.0504000e+00   1.0601653e+02
 6.0558667e+00   1.2440894e+02
 6.0613333e+00   1.4174529e+02
 6.0668000e+00   1.5348251e+02
 6.0722667e+00   1.5774669e+02
 6.0777333e+00   1.5882439e+02
 6.0832000e+00   1.5067371e+02
 6.0886667e+00   1.3671485e+02
 6.0941333e+00   1.1989981e+02
 6.0996000e+00   1.0051083e+02
 6.1050667e+00   8.5395741e+01
 6.1105333e+00   7.0648011e+01
 6.1160000e+00   6.0317040e+01
 6.1214667e+00   5.2007624e+01
 6.1269333e+00   4.6632134e+01
 6.1324000e+00   4.3499610e+01
 6.1378667e+00   4.1472582e+01
 6.1433333e+00   4.0722392e+01
 6.1488000e+00   3.9789927e+01
 6.1542667e+00   3.9536735e+01
 6.1597333e+00   3.9067379e+01
 6.1652000e+00   3.8887452e+01
 6.1706667e+00   3.8507244e+01
 6.1761333e+00   3.8598969e+01
 6.1816000e+00   3.8107241e+01
 6.1870667e+00   3.8293669e+01
 6.1925333e+00   3.8001859e+01
 6.1980000e+00   3.8154156e+01
 6.2034667e+00   3.7724625e+01
 6.2089333e+00   3.7936673e+01
 6.2144000e+00   3.7546824e+01
 6.2198667e+00   3.7839511e+01
 6.2253333e+00   3.7620557e+01
 6.2308000e+00   3.7535226e+01
 6.2362667e+00   3.7515488e+01
 6.2417333e+00   3.7655146e+01
 6.2472000e+00   3.7531467e+01
 6.2526667e+00   3.7756818e+01
 6.2581333e+00   3.7464628e+01
 6.2636000e+00   3.9431839e+01
 6.2690667e+00   3.7203377e+01
 6.2745333e+00   3.9431391e+01
 6.2800000e+00   3.7165483e+01
 6.2854667e+00   3.7679242e+01
 6.2909333e+00   3.6995124e+01
 6.2964000e+00   3.7316158e+01
 6.3018667e+00   3.6883606e+01
 6.3073333e+00   3.7247077e+01
 6.3128000e+00   3.6991647e+01
 6.3182667e+00   3.7371427e+01
 6.3237333e+00   3.6916369e+01
 6.3292000e+00   3.7276496e+01
 6.3346667e+00   3.6857213e+01
 6.3401333e+00   3.7444491e+01
 6.3456000e+00   3.6935588e+01
 6.3510667e+00   3.7549591e+01
 6.3565333e+00   3.7327414e+01
 6.3620000e+00   3.7813895e+01
 6.3674667e+00   3.8033710e+01
 6.3729333e+00   3.8584450e+01
 6.3784000e+00   3.9288020e+01
 6.3838667e+00   4.0106980e+01
 6.3893333e+00   4.1320231e+01
 6.3948000e+00   4.2695813e+01
 6.4002667e+00   4.4495186e+01
 6.4057333e+00   4.6332323e+01
 6.4112000e+00   4.8210962e+01
 6.4166667e+00   4.9874901e+01
 6.4221333e+00   5.0885331e+01
 6.4276000e+00   5.1450029e+01
 6.4330667e+00   5.1753307e+01
 6.4385333e+00   5.1067626e+01
 6.4440000e+00   5.0252462e+01
 6.4494667e+00   4.8408287e+01
 6.4549333e+00   4.7346315e+01
 6.4604000e+00   4.5354780e+01
 6.4658667e+00   4.4204035e+01
 6.4713333e+00   4.2610718e+01
 6.4768000e+00   4.1146720e+01
 6.4822667e+00   4.0544799e+01
 6.4877333e+00   3.9220963e+01
 6.4932000e+00   3.8716431e+01
 6.4986667e+00   3.8017120e+01
 6.5041333e+00   3.7704506e+01
 6.5096000e+00   3.7223715e+01
 6.5150667e+00   3.7233618e+01
 6.5205333e+00   3.7046320e+01
 6.5260000e+00   3.7097069e+01
 6.5314667e+00   3.6596656e+01
 6.5369333e+00   3.6875265e+01
 6.5424000e+00   3.6628006e+01
 6.5478667e+00   3.6797465e+01
 6.5533333e+00   3.6583426e+01
 6.5588000e+00   3.6801720e+01
 6.5642667e+00   3.6482688e+01
 6.5697333e+00   3.6687034e+01
 6.5752000e+00   3.6477562e+01
 6.5806667e+00   3.6483688e+01
 6.5861333e+00   3.6578229e+01
 6.5916000e+00   3.6600702e+01
 6.5970667e+00   3.6617454e+01
 6.6025333e+00   3.6410610e+01
 6.6080000e+00   3.6631351e+01
 6.6134667e+00   3.6319913e+01
 6.6189333e+00   3.6622681e+01
 6.6244000e+00   3.6572434e+01
 6.6298667e+00   3.6731930e+01
 6.6353333e+00   3.6368120e+01
 6.6408000e+00   3.6589323e+01
 6.6462667e+00   3.6597661e+01
 6.6517333e+00   3.6609636e+01
 6.6572000e+00   3.6629511e+01
 6.6626667e+00   3.6636332e+01
 6.6681333e+00   3.6634362e+01
 6.6736000e+00   3.6771929e+01
 6.6790667e+00   3.6583778e+01
 6.6845333e+00   3.6711085e+01
 6.6900000e+00   3.6689951e+01
 6.6954667e+00   3.6727306e+01
 6.7009333e+00   3.6919930e+01
 6.7064000e+00   3.6701936e+01
 6.7118667e+00   3.6893243e+01
 6.7173333e+00   3.6739756e+01
 6.7228000e+00   3.7043663e+01
 6.7282667e+00   3.6774261e+01
 6.7337333e+00   3.7149315e+01
 6.7392000e+00   3.6732178e+01
 6.7446667e+00   3.7058908e+01
 6.7501333e+00   3.6953946e+01
 6.7556000e+00   3.7017327e+01
 6.7610667e+00   3.6977962e+01
 6.7665333e+00   3.6881494e+01
 6.7720000e+00   3.7244478e+01
 6.7774667e+00   3.7088568e+01
 6.7829333e+00   3.7239810e+01
 6.7884000e+00   3.7264678e+01
 6.7938667e+00   3.7222585e+01
 6.7993333e+00   3.7232263e+01
 6.8048000e+00   3.7390845e+01
 6.8102667e+00   3.7298159e+01
 6.8157333e+00   3.7505565e+01
 6.8212000e+00   3.7238191e+01
 6.8266667e+00   3.7480389e+01
 6.8321333e+00   3.7424683e+01
 6.8376000e+00   3.7623792e+01
 6.8430667e+00   3.7576629e+01
 6.8485333e+00   3.7743668e+01
 6.8540000e+00   3.7547420e+01
 6.8594667e+00   3.7843079e+01
 6.8649333e+00   3.7735780e+01
 6.8704000e+00   3.7845886e+01
 6.8758667e+00   3.7975497e+01
 6.8813333e+00   3.8023485e+01
 6.8868000e+00   3.7967676e+01
 6.8922667e+00   3.8003520e+01
 6.8977333e+00   3.8000911e+01
 6.9032000e+00   3.8283395e+01
 6.9086667e+00   3.8174069e+01
 6.9141333e+00   3.8416206e+01
 6.9196000e+00   3.8459520e+01
 6.9250667e+00   3.8352899e+01
 6.9305333e+00   3.8427461e+01
 6.9360000e+00   3.8556140e+01
 6.9414667e+00   3.8659302e+01
 6.9469333e+00   3.8710094e+01
 6.9524000e+00   3.8986456e+01
 6.9578667e+00   3.8848604e+01
 6.9633333e+00   3.8950743e+01
 6.9688000e+00   3.9139037e+01
 6.9742667e+00   3.9281627e+01
 6.9797333e+00   3.9327705e+01
 6.9852000e+00   3.9396136e+01
 6.9906667e+00   3.9579547e+01
 6.9961333e+00   3.9641374e+01
 7.0016000e+00   3.9814511e+01
 7.0070667e+00   3.9945426e+01
 7.0125333e+00   4.0020106e+01
 7.0180000e+00   4.0165193e+01
 7.0234667e+00   4.0523909e+01
 7.0289333e+00   4.0423812e+01
 7.0344000e+00   4.0801628e+01
 7.0398667e+00   4.0723159e+01
 7.0453333e+00   4.1144224e+01
 7.0508000e+00   4.1249621e+01
 7.0562667e+00   4.1721524e+01
 7.0617333e+00   4.2113663e+01
 7.0672000e+00   4.2995047e+01
 7.0726667e+00   4.3843804e+01
 7.0781333e+00   4.5528994e+01
 7.0836000e+00   4.8380281e+01
 7.0890667e+00   5.3298493e+01
 7.0945333e+00   6.0901997e+01
 7.1000000e+00   7.0734661e+01
 7.1054667e+00   8.4527189e+01
 7.1109333e+00   9.9957652e+01
 7.1164000e+00   1.1524349e+02
 7.1218667e+00   1.2955464e+02
 7.1273333e+00   1.3918250e+02
 7.1328000e+00   1.4542514e+02
 7.1382667e+00   1.4505680e+02
 7.1437333e+00   1.4091799e+02
 7.1492000e+00   1.3210814e+02
 7.1546667e+00   1.2029603e+02
 7.1601333e+00   1.0770873e+02
 7.1656000e+00   9.3040907e+01
 7.1710667e+00   8.1223868e+01
 7.1765333e+00   6.8800821e+01
 7.1820000e+00   5.9782623e+01
 7.1874667e+00   5.3417347e+01
 7.1929333e+00   4.9106330e+01
 7.1984000e+00   4.6458230e+01
 7.2038667e+00   4.4888130e+01
 7.2093333e+00   4.3846562e+01
 7.2148000e+00   4.3139626e+01
 7.2202667e+00   4.2806429e+01
 7.2257333e+00   4.2342739e+01
 7.2312000e+00   4.2250990e+01
 7.2366667e+00   4.2080815e+01
 7.2421333e+00   4.1898756e+01
 7.2476000e+00   4.1716844e+01
 7.2530667e+00   4.1841961e+01
 7.2585333e+00   4.1410100e+01
 7.2640000e+00   4.1659702e+01
 7.2694667e+00   4.1228184e+01
 7.2749333e+00   4.1464650e+01
 7.2804000e+00   4.1343386e+01
 7.2858667e+00   4.1325317e+01
 7.2913333e+00   4.1189654e+01
 7.2968000e+00   4.1237452e+01
 7.3022667e+00   4.1201753e+01
 7.3077333e+00   4.1117516e+01
 7.3132000e+00   4.1226053e+01
 7.3186667e+00   4.0938306e+01
 7.3241333e+00   4.1213883e+01
 7.3296000e+00   4.0996297e+01
 7.3350667e+00   4.1184461e+01
 7.3405333e+00   4.0906942e+01
 7.3460000e+00   4.1121318e+01
 7.3514667e+00   4.0946481e+01
 7.3569333e+00   4.1162759e+01
 7.3624000e+00   4.0859531e+01
 7.3678667e+00   4.1154443e+01
 7.3733333e+00   4.0955969e+01
 7.3788000e+00   4.1145799e+01
 7.3842667e+00   4.0878024e+01
 7.3897333e+00   4.1150365e+01
 7.3952000e+00   4.0810209e+01
 7.4006667e+00   4.1202282e+01
 7.4061333e+00   4.0885741e+01
 7.4116000e+00   4.1220867e+01
 7.4170667e+00   4.1017283e+01
 7.4225333e+00   4.1080646e+01
 7.4280000e+00   4.1034155e+01
 7.4334667e+00   4.1036231e+01
 7.4389333e+00   4.1010507e+01
 7.4444000e+00   4.1253165e+01
 7.4498667e+00   4.1236737e+01
 7.4553333e+00   4.1203242e+01
 7.4608000e+00   4.1337217e+01
 7.4662667e+00   4.1342675e+01
 7.4717333e+00   4.1365074e+01
 7.4772000e+00   4.1400964e+01
 7.4826667e+00   4.1418534e+01
 7.4881333e+00   4.1413178e+01
 7.4936000e+00   4.1521610e+01
 7.4990667e+00   4.1483955e+01
 7.5045333e+00   4.1562266e+01
 7.5100000e+00   4.1524640e+01
 7.5154667e+00   4.1758716e+01
 7.5209333e+00   4.1648945e+01
 7.5264000e+00   4.1518708e+01
 7.5318667e+00   4.1727431e+01
 7.5373333e+00   4.1621004e+01
 7.5428000e+00   4.1869400e+01
 7.5482667e+00   4.1609623e+01
 7.5537333e+00   4.2049853e+01
 7.5592000e+00   4.1722575e+01
 7.5646667e+00   4.1915856e+01
 7.5701333e+00   4.1879502e+01
 7.5756000e+00   4.2069631e+01
 7.5810667e+00   4.2029821e+01
 7.5865333e+00   4.2182418e+01
 7.5920000e+00   4.2184912e+01
 7.5974667e+00   4.2174810e+01
 7.6029333e+00   4.2278850e+01
 7.6084000e+00   4.2185927e+01
 7.6138667e+00   4.2365366e+01
 7.6193333e+00   4.2410515e+01
 7.6248000e+00   4.2537299e+01
 7.6302667e+00   4.2433436e+01
 7.6357333e+00   4.2550013e+01
 7.6412000e+00   4.2489401e+01
 7.6466667e+00   4.2652251e+01
 7.6521333e+00   4.2742779e+01
 7.6576000e+00   4.2832095e+01
 7.6630667e+00   4.2855833e+01
 7.6685333e+00   4.2940394e+01
 7.6740000e+00   4.2949611e+01
 7.6794667e+00   4.3143597e+01
 7.6849333e+00   4.3326650e+01
 7.6904000e+00   4.3363936e+01
 7.6958667e+00   4.3544071e+01
 7.7013333e+00   4.3602420e+01
 7.7068000e+00   4.3613504e+01
 7.7122667e+00   4.3787570e+01
 7.7177333e+00   4.3759661e+01
 7.7232000e+00   4.4100707e+01
 7.7286667e+00   4.4179272e+01
 7.7341333e+00   4.4306331e+01
 7.7396000e+00   4.4489209e+01
 7.7450667e+00   4.4391333e+01
 7.7505333e+00   4.4774431e+01
 7.7560000e+00   4.4924416e+01
 7.7614667e+00   4.5185890e+01
 7.7669333e+00   4.5355652e+01
 7.7724000e+00   4.5760486e+01
 7.7778667e+00   4.5657849e+01
 7.7833333e+00   4.6522116e+01
 7.7888000e+00   4.7107219e+01
 7.7942667e+00   4.7385989e+01
 7.7997333e+00   4.9710099e+01
 7.8052000e+00   5.3026632e+01
 7.8106667e+00   5.1950189e+01
 7.8161333e+00   5.6588211e+01
 7.8216000e+00   6.2786442e+01
 7.8270667e+00   7.2093786e+01
 7.8325333e+00   8.6001695e+01
 7.8380000e+00   1.0454931e+02
 7.8434667e+00   1.2310288e+02
 7.8489333e+00   1.4202546e+02
 7.8544000e+00   1.5695951e+02
 7.8598667e+00   1.6994073e+02
 7.8653333e+00   1.7276637e+02
 7.8708000e+00   1.7315733e+02
 7.8762667e+00   1.6488595e+02
 7.8817333e+00   1.5081275e+02
 7.8872000e+00   1.3684846e+02
 7.8926667e+00   1.1681355e+02
 7.8981333e+00   1.0261688e+02
 7.9036000e+00   8.6699540e+01
 7.9090667e+00   7.5884812e+01
 7.9145333e+00   6.6842824e+01
 7.9200000e+00   6.0621260e+01
 7.9254667e+00   5.6542612e+01
 7.9309333e+00   5.3588404e+01
 7.9364000e+00   5.2031168e+01
 7.9418667e+00   5.0232580e+01
 7.9473333e+00   4.9966732e+01
 7.9528000e+00   4.8950803e+01
 7.9582667e+00   4.8857252e+01
 7.9637333e+00   4.8325753e+01
 7.9692000e+00   4.8337827e+01
 7.9746667e+00   4.7868940e+01
 7.9801333e+00   4.7978724e+01
 7.9856000e+00   4.7529552e+01
 7.9910667e+00   4.7779850e+01
 7.9965333e+00   4.7460122e+01
 8.0020000e+00   4.7572778e+01
 8.0074667e+00   4.7620404e+01
 8.0129333e+00   4.7687741e+01
 8.0184000e+00   4.7662135e+01
 8.0238667e+00   4.7695351e+01
 8.0293333e+00   4.8014714e+01
 8.0348000e+00   4.7651426e+01
 8.0402667e+00   4.8097920e+01
 8.0457333e+00   4.7834667e+01
 8.0512000e+00   4.8465549e+01
 8.0566667e+00   4.8057164e+01
 8.0621333e+00   4.8693986e+01
 8.0676000e+00   4.8510398e+01
 8.0730667e+00   4.9073264e+01
 8.0785333e+00   4.9463042e+01
 8.0840000e+00   4.9852512e+01
 8.0894667e+00   5.1412362e+01
 8.0949333e+00   5.2056198e+01
 8.1004000e+00   6.1140142e+01
 8.1058667e+00   5.5376778e+01
 8.1113333e+00   7.7072831e+01
 8.1168000e+00   8.0584843e+01
 8.1222667e+00   9.6648625e+01
 8.1277333e+00   9.8915860e+01
 8.1332000e+00   1.2049107e+02
 8.1386667e+00   1.4218525e+02
 8.1441333e+00   1.3223508e+02
 8.1496000e+00   1.1534182e+02
 8.1550667e+00   1.2688410e+02
 8.1605333e+00   1.0123284e+02
 8.1660000e+00   1.3309857e+02
 8.1714667e+00   1.0337200e+02
 8.1769333e+00   1.3194107e+02
 8.1824000e+00   9.7829220e+01
 8.1878667e+00   9.5835937e+01
 8.1933333e+00   1.0371208e+02
 8.1988000e+00   8.8240180e+01
 8.2042667e+00   1.1881527e+02
 8.2097333e+00   9.3922123e+01
 8.2152000e+00   9.4570407e+01
 8.2206667e+00   7.6720828e+01
 8.2261333e+00   6.7954602e+01
 8.2316000e+00   6.4520218e+01
 8.2370667e+00   6.3761246e+01
 8.2425333e+00   6.3245190e+01
 8.2480000e+00   6.2556466e+01
 8.2534667e+00   6.1069587e+01
 8.2589333e+00   5.9916666e+01
 8.2644000e+00   5.7762568e+01
 8.2698667e+00   5.6452727e+01
 8.2753333e+00   5.3995851e+01
 8.2808000e+00   5.3266346e+01
 8.2862667e+00   5.1795212e+01
 8.2917333e+00   5.1388600e+01
 8.2972000e+00   5.0485920e+01
 8.3026667e+00   5.0464535e+01
 8.3081333e+00   5.0008805e+01
 8.3136000e+00   5.0079896e+01
 8.3190667e+00   4.9804447e+01
 8.3245333e+00   5.0023670e+01
 8.3300000e+00   4.9988717e+01
 8.3354667e+00   5.0179083e+01
 8.3409333e+00   5.0267429e+01
 8.3464000e+00   5.0560541e+01
 8.3518667e+00   5.1164704e+01
 8.3573333e+00   5.1669569e+01
 8.3628000e+00   5.3502681e+01
 8.3682667e+00   5.5046316e+01
 8.3737333e+00   5.9514179e+01
 8.3792000e+00   6.4017827e+01
 8.3846667e+00   7.3265823e+01
 8.3901333e+00   8.2409281e+01
 8.3956000e+00   9.5442999e+01
 8.4010667e+00   1.0722529e+02
 8.4065333e+00   1.2069199e+02
 8.4120000e+00   1.3098743e+02
 8.4174667e+00   1.3843365e+02
 8.4229333e+00   1.4100934e+02
 8.4284000e+00   1.3895137e+02
 8.4338667e+00   1.3071150e+02
 8.4393333e+00   1.1988505e+02
 8.4448000e+00   1.0529405e+02
 8.4502667e+00   9.2485833e+01
 8.4557333e+00   8.0514815e+01
 8.4612000e+00   7.0805202e+01
 8.4666667e+00   6.4485539e+01
 8.4721333e+00   5.9154052e+01
 8.4776000e+00   5.7460988e+01
 8.4830667e+00   5.5788017e+01
 8.4885333e+00   5.7214835e+01
 8.4940000e+00   5.8423459e+01
 8.4994667e+00   6.2820082e+01
 8.5049333e+00   6.6703509e+01
 8.5104000e+00   7.4915042e+01
 8.5158667e+00   8.0830413e+01
 8.5213333e+00   9.0038972e+01
 8.5268000e+00   9.6452986e+01
 8.5322667e+00   1.0326976e+02
 8.5377333e+00   1.0710756e+02
 8.5432000e+00   1.0945230e+02
 8.5486667e+00   1.0748018e+02
 8.5541333e+00   1.0418030e+02
 8.5596000e+00   9.5676438e+01
 8.5650667e+00   8.7988033e+01
 8.5705333e+00   7.7987167e+01
 8.5760000e+00   6.9031146e+01
 8.5814667e+00   6.3370543e+01
 8.5869333e+00   5.7412186e+01
 8.5924000e+00   5.4530003e+01
 8.5978667e+00   5.1920331e+01
 8.6033333e+00   5.0890062e+01
 8.6088000e+00   4.9530270e+01
 8.6142667e+00   4.9335106e+01
 8.6197333e+00   4.8548386e+01
 8.6252000e+00   4.8543911e+01
 8.6306667e+00   4.8009665e+01
 8.6361333e+00   4.7970609e+01
 8.6416000e+00   4.7456614e+01
 8.6470667e+00   4.7547364e+01
 8.6525333e+00   4.7039352e+01
 8.6580000e+00   4.7142409e+01
 8.6634667e+00   4.6728985e+01
 8.6689333e+00   4.6842952e+01
 8.6744000e+00   4.6550313e+01
 8.6798667e+00   4.6316027e+01
 8.6853333e+00   4.6364173e+01
 8.6908000e+00   4.6123291e+01
 8.6962667e+00   4.6230018e+01
 8.7017333e+00   4.5796828e+01
 8.7072000e+00   4.6105359e+01
 8.7126667e+00   4.5705946e+01
 8.7181333e+00   4.5865736e+01
 8.7236000e+00   4.5578986e+01
 8.7290667e+00   4.5532665e+01
 8.7345333e+00   4.5371531e+01
 8.7400000e+00   4.5495802e+01
 8.7454667e+00   4.5067680e+01
 8.7509333e+00   4.5391056e+01
 8.7564000e+00   4.4914739e+01
 8.7618667e+00   4.5141013e+01
 8.7673333e+00   4.4889169e+01
 8.7728000e+00   4.4905734e+01
 8.7782667e+00   4.4794814e+01
 8.7837333e+00   4.4804235e+01
 8.7892000e+00   4.4613704e+01
 8.7946667e+00   4.4582275e+01
 8.8001333e+00   4.4604383e+01
 8.8056000e+00   4.4487729e+01
 8.8110667e+00   4.4566493e+01
 8.8165333e+00   4.4404110e+01
 8.8220000e+00   4.4378547e+01
 8.8274667e+00   4.4204567e+01
 8.8329333e+00   4.4374762e+01
 8.8384000e+00   4.3975918e+01
 8.8438667e+00   4.4234278e+01
 8.8493333e+00   4.3868982e+01
 8.8548000e+00   4.4326809e+01
 8.8602667e+00   4.3789384e+01
 8.8657333e+00   4.4143603e+01
 8.8712000e+00   4.3982916e+01
 8.8766667e+00   4.4335288e+01
 8.8821333e+00   4.4286308e+01
 8.8876000e+00   4.5057653e+01
 8.8930667e+00   4.5776894e+01
 8.8985333e+00   4.6911918e+01
 8.9040000e+00   4.8114012e+01
 8.9094667e+00   5.0121537e+01
 8.9149333e+00   5.2355785e+01
 8.9204000e+00   5.4491286e+01
 8.9258667e+00   5.6407735e+01
 8.9313333e+00   5.7271499e+01
 8.9368000e+00   5.8017922e+01
 8.9422667e+00   5.7397918e+01
 8.9477333e+00   5.5893113e+01
 8.9532000e+00   5.3745413e+01
 8.9586667e+00   5.1348938e+01
 8.9641333e+00   4.8738246e+01
 8.9696000e+00   4.7347158e+01
 8.9750667e+00   4.5488875e+01
 8.9805333e+00   4.4952880e+01
 8.9860000e+00   4.3860667e+01
 8.9914667e+00   4.3430923e+01
 8.9969333e+00   4.2973041e+01
 9.0024000e+00   4.2736917e+01
 9.0078667e+00   4.2607015e+01
 9.0133333e+00   4.2513029e+01
 9.0188000e+00   4.2432031e+01
 9.0242667e+00   4.2266822e+01
 9.0297333e+00   4.2263355e+01
 9.0352000e+00   4.2237945e+01
 9.0406667e+00   4.2191375e+01
 9.0461333e+00   4.2240744e+01
 9.0516000e+00   4.2271689e+01
 9.0570667e+00   4.2497932e+01
 9.0625333e+00   4.2677375e+01
 9.0680000e+00   4.2941160e+01
 9.0734667e+00   4.3476945e+01
 9.0789333e+00   4.3491331e+01
 9.0844000e+00   4.4280866e+01
 9.0898667e+00   4.4309647e+01
 9.0953333e+00   4.5151127e+01
 9.1008000e+00   4.4886718e+01
 9.1062667e+00   4.5367585e+01
 9.1117333e+00   4.4965154e+01
 9.1172000e+00   4.4860313e+01
 9.1226667e+00   4.4333153e+01
 9.1281333e+00   4.3821012e+01
 9.1336000e+00   4.3242967e+01
 9.1390667e+00   4.2824534e+01
 9.1445333e+00   4.2280222e+01
 9.1500000e+00   4.1775447e+01
 9.1554667e+00   4.1522556e+01
 9.1609333e+00   4.1325231e+01
 9.1664000e+00   4.0918685e+01
 9.1718667e+00   4.1033011e+01
 9.1773333e+00   4.0627267e+01
 9.1828000e+00   4.0643811e+01
 9.1882667e+00   4.0528421e+01
 9.1937333e+00   4.0443243e+01
 9.1992000e+00   4.0558164e+01
 9.2046667e+00   4.0286358e+01
 9.2101333e+00   4.0276493e+01
 9.2156000e+00   4.0121772e+01
 9.2210667e+00   4.0092453e+01
 9.2265333e+00   4.0273892e+01
 9.2320000e+00   4.0094334e+01
 9.2374667e+00   4.0190041e+01
 9.2429333e+00   4.0098923e+01
 9.2484000e+00   3.9951491e+01
 9.2538667e+00   4.0010014e+01
 9.2593333e+00   3.9813435e+01
 9.2648000e+00   4.0120103e+01
 9.2702667e+00   3.9761236e+01
 9.2757333e+00   4.0258945e+01
 9.2812000e+00   3.9769373e+01
 9.2866667e+00   4.0187581e+01
 9.2921333e+00   3.9973916e+01
 9.2976000e+00   4.0011355e+01
 9.3030667e+00   3.9992229e+01
 9.3085333e+00   4.0036585e+01
 9.3140000e+00   4.0150734e+01
 9.3194667e+00   4.0357814e+01
 9.3249333e+00   4.0627492e+01
 9.3304000e+00   4.1052848e+01
 9.3358667e+00   4.1751018e+01
 9.3413333e+00   4.2932254e+01
 9.3468000e+00   4.4193694e+01
 9.3522667e+00   4.6068779e+01
 9.3577333e+00   4.7932330e+01
 9.3632000e+00   4.9509090e+01
 9.3686667e+00   5.1440524e+01
 9.3741333e+00   5.2103342e+01
 9.3796000e+00   5.3087746e+01
 9.3850667e+00   5.2425683e+01
 9.3905333e+00   5.1839652e+01
 9.3960000e+00   4.9896483e+01
 9.4014667e+00   4.8069682e+01
 9.4069333e+00   4.6381736e+01
 9.4124000e+00   4.4270633e+01
 9.4178667e+00   4.3235324e+01
 9.4233333e+00   4.1814915e+01
 9.4288000e+00   4.1145328e+01
 9.4342667e+00   4.0570295e+01
 9.4397333e+00   4.0183358e+01
 9.4452000e+00   4.0093663e+01
 9.4506667e+00   3.9906408e+01
 9.4561333e+00   3.9790233e+01
 9.4616000e+00   3.9994103e+01
 9.4670667e+00   3.9816192e+01
 9.4725333e+00   4.0110613e+01
 9.4780000e+00   3.9996731e+01
 9.4834667e+00   4.0464703e+01
 9.4889333e+00   4.0154432e+01
 9.4944000e+00   4.1266119e+01
 9.4998667e+00   4.0801908e+01
 9.5053333e+00   4.4249801e+01
 9.5108000e+00   4.4922461e+01
 9.5162667e+00   5.6806601e+01
 9.5217333e+00   5.5873959e+01
 9.5272000e+00   6.4998367e+01
 9.5326667e+00   6.4014019e+01
 9.5381333e+00   7.4426628e+01
 9.5436000e+00   8.4032053e+01
 9.5490667e+00   1.0078355e+02
 9.5545333e+00   1.1165788e+02
 9.5600000e+00   1.1757776e+02
 9.5654667e+00   1.1957377e+02
 9.5709333e+00   1.1373965e+02
 9.5764000e+00   1.0986723e+02
 9.5818667e+00   1.1185447e+02
 9.5873333e+00   9.9446419e+01
 9.5928000e+00   1.0214570e+02
 9.5982667e+00   9.5482195e+01
 9.6037333e+00   8.3358795e+01
 9.6092000e+00   7.6468371e+01
 9.6146667e+00   6.3215710e+01
 9.6201333e+00   5.8269492e+01
 9.6256000e+00   5.0676082e+01
 9.6310667e+00   4.8570917e+01
 9.6365333e+00   4.3289398e+01
 9.6420000e+00   4.1767423e+01
 9.6474667e+00   4.0177764e+01
 9.6529333e+00   3.9998420e+01
 9.6584000e+00   3.9199780e+01
 9.6638667e+00   3.9404500e+01
 9.6693333e+00   3.8794897e+01
 9.6748000e+00   3.9074316e+01
 9.6802667e+00   3.8897337e+01
 9.6857333e+00   3.8902197e+01
 9.6912000e+00   3.8749086e+01
 9.6966667e+00   3.8207491e+01
 9.7021333e+00   3.8588477e+01
 9.7076000e+00   3.8154746e+01
 9.7130667e+00   3.8124118e+01
 9.7185333e+00   3.8054109e+01
 9.7240000e+00   3.7709086e+01
 9.7294667e+00   3.7896281e+01
 9.7349333e+00   3.7449802e+01
 9.7404000e+00   3.7779009e+01
 9.7458667e+00   3.7373997e+01
 9.7513333e+00   3.7497750e+01
 9.7568000e+00   3.7329445e+01
 9.7622667e+00   3.7241210e+01
 9.7677333e+00   3.7395843e+01
 9.7732000e+00   3.7270468e+01
 9.7786667e+00   3.7322537e+01
 9.7841333e+00   3.7499103e+01
 9.7896000e+00   3.7609214e+01
 9.7950667e+00   3.8167169e+01
 9.8005333e+00   3.8520432e+01
 9.8060000e+00   3.9728403e+01
 9.8114667e+00   4.0752028e+01
 9.8169333e+00   4.2488181e+01
 9.8224000e+00   4.3927839e+01
 9.8278667e+00   4.5477810e+01
 9.8333333e+00   4.7046311e+01
 9.8388000e+00   4.7825654e+01
 9.8442667e+00   4.8711080e+01
 9.8497333e+00   4.8240426e+01
 9.8552000e+00   4.7150754e+01
 9.8606667e+00   4.5801215e+01
 9.8661333e+00   4.4122153e+01
 9.8716000e+00   4.2524459e+01
 9.8770667e+00   4.1068204e+01
 9.8825333e+00   3.9963056e+01
 9.8880000e+00   3.8997380e+01
 9.8934667e+00   3.8442072e+01
 9.8989333e+00   3.8123921e+01
 9.9044000e+00   3.7482121e+01
 9.9098667e+00   3.7969954e+01
 9.9153333e+00   3.8099048e+01
 9.9208000e+00   3.7924808e+01
 9.9262667e+00   3.8268045e+01
 9.9317333e+00   3.8133199e+01
 9.9372000e+00   3.8738742e+01
 9.9426667e+00   3.8989416e+01
 9.9481333e+00   4.0493026e+01
 9.9536000e+00   4.3697258e+01
 9.9590667e+00   4.3315344e+01
 9.9645333e+00   4.5911071e+01
 9.9700000e+00   5.7072181e+01
 9.9754667e+00   5.4308998e+01
 9.9809333e+00   6.5309913e+01
 9.9864000e+00   8.1573073e+01
 9.9918667e+00   9.0138054e+01
 9.9973333e+00   8.8211757e+01
 1.0002800e+01   9.1164849e+01
 1.0008267e+01   1.1280073e+02
 1.0013733e+01   7.9173891e+01
 1.0019200e+01   1.1477759e+02
 1.0024667e+01   7.4452183e+01
 1.0030133e+01   1.0214370e+02
 1.0035600e+01   8.8534761e+01
 1.0041067e+01   8.2574853e+01
 1.0046533e+01   8.1823000e+01
 1.0052000e+01   8.9984042e+01
 1.0057467e+01   5.9413802e+01
 1.0062933e+01   6.4064285e+01
 1.0068400e+01   6.0353880e+01
 1.0073867e+01   4.1476622e+01
 1.0079333e+01   4.4563849e+01
 1.0084800e+01   4.0317308e+01
 1.0090267e+01   3.9342508e+01
 1.0095733e+01   3.8329851e+01
 1.0101200e+01   3.8388042e+01
 1.0106667e+01   3.7583960e+01
 1.0112133e+01   3.7464220e+01
 1.0117600e+01   3.7205680e+01
 1.0123067e+01   3.7310521e+01
 1.0128533e+01   3.7240714e+01
 1.0134000e+01   3.7521140e+01
 1.0139467e+01   3.7155075e+01
 1.0144933e+01   3.7457177e+01
 1.0150400e+01   3.7427164e+01
 1.0155867e+01   3.7979337e+01
 1.0161333e+01   3.8004754e+01
 1.0166800e+01   3.8337614e+01
 1.0172267e+01   3.8466299e+01
 1.0177733e+01   3.8473416e+01
 1.0183200e+01   3.8527989e+01
 1.0188667e+01   3.8394583e+01
 1.0194133e+01   3.8249791e+01
 1.0199600e+01   3.8088172e+01
 1.0205067e+01   3.7649126e+01
 1.0210533e+01   3.7212433e+01
 1.0216000e+01   3.6723197e+01
 1.0221467e+01   3.6503046e+01
 1.0226933e+01   3.6076270e+01
 1.0232400e+01   3.5651591e+01
 1.0237867e+01   3.5488434e+01
 1.0243333e+01   3.5289358e+01
 1.0248800e+01   3.4933463e+01
 1.0254267e+01   3.4784214e+01
 1.0259733e+01   3.4671999e+01
 1.0265200e+01   3.4620607e+01
 1.0270667e+01   3.4453907e+01
 1.0276133e+01   3.4589386e+01
 1.0281600e+01   3.4177364e+01
 1.0287067e+01   3.4341780e+01
 1.0292533e+01   3.4202122e+01
 1.0298000e+01   3.4159260e+01
 1.0303467e+01   3.4147555e+01
 1.0308933e+01   3.4217121e+01
 1.0314400e+01   3.4047428e+01
 1.0319867e+01   3.4000097e+01
 1.0325333e+01   3.3977512e+01
 1.0330800e+01   3.3956996e+01
 1.0336267e+01   3.3871255e+01
 1.0341733e+01   3.3919286e+01
 1.0347200e+01   3.3833797e+01
 1.0352667e+01   3.3774208e+01
 1.0358133e+01   3.3791274e+01
 1.0363600e+01   3.3765003e+01
 1.0369067e+01   3.3887838e+01
 1.0374533e+01   3.3650016e+01
 1.0380000e+01   3.3757063e+01
 1.0385467e+01   3.3710951e+01
 1.0390933e+01   3.3717292e+01
 1.0396400e+01   3.3569789e+01
 1.0401867e+01   3.3766687e+01
 1.0407333e+01   3.3702875e+01
 1.0412800e+01   3.3797534e+01
 1.0418267e+01   3.4080752e+01
 1.0423733e+01   3.3974628e+01
 1.0429200e+01   3.8456523e+01
 1.0434667e+01   3.5258776e+01
 1.0440133e+01   3.9503218e+01
 1.0445600e+01   3.5224321e+01
 1.0451067e+01   3.4278126e+01
 1.0456533e+01   3.3847815e+01
 1.0462000e+01   3.3796348e+01
 1.0467467e+01   3.3626763e+01
 1.0472933e+01   3.3704017e+01
 1.0478400e+01   3.3569709e+01
 1.0483867e+01   3.3656798e+01
 1.0489333e+01   3.3631870e+01
 1.0494800e+01   3.3760301e+01
 1.0500267e+01   3.3707553e+01
 1.0505733e+01   3.3670025e+01
 1.0511200e+01   3.3666452e+01
 1.0516667e+01   3.3748080e+01
 1.0522133e+01   3.3718619e+01
 1.0527600e+01   3.3767184e+01
 1.0533067e+01   3.3734023e+01
 1.0538533e+01   3.3830912e+01
 1.0544000e+01   3.3754478e+01
 1.0549467e+01   3.3898060e+01
 1.0554933e+01   3.4026639e+01
 1.0560400e+01   3.4061593e+01
 1.0565867e+01   3.4253954e+01
 1.0571333e+01   3.4424622e+01
 1.0576800e+01   3.4922021e+01
 1.0582267e+01   3.5581036e+01
 1.0587733e+01   3.6687109e+01
 1.0593200e+01   3.8224254e+01
 1.0598667e+01   4.0299949e+01
 1.0604133e+01   4.2792180e+01
 1.0609600e+01   4.5618052e+01
 1.0615067e+01   4.8391522e+01
 1.0620533e+01   5.0936811e+01
 1.0626000e+01   5.2301831e+01
 1.0631467e+01   5.3730299e+01
 1.0636933e+01   5.3215713e+01
 1.0642400e+01   5.5305706e+01
 1.0647867e+01   5.0427198e+01
 1.0653333e+01   5.5640876e+01
 1.0658800e+01   4.5522524e+01
 1.0664267e+01   4.3751683e+01
 1.0669733e+01   4.0168446e+01
 1.0675200e+01   3.8307783e+01
 1.0680667e+01   3.6794575e+01
 1.0686133e+01   3.5762075e+01
 1.0691600e+01   3.5210488e+01
 1.0697067e+01   3.4780949e+01
 1.0702533e+01   3.4827082e+01
 1.0708000e+01   3.4344678e+01
 1.0713467e+01   3.4813934e+01
 1.0718933e+01   3.4778545e+01
 1.0724400e+01   3.4243121e+01
 1.0729867e+01   3.4039776e+01
 1.0735333e+01   3.4087411e+01
 1.0740800e+01   3.3982865e+01
 1.0746267e+01   3.3902797e+01
 1.0751733e+01   3.3867675e+01
 1.0757200e+01   3.3859386e+01
 1.0762667e+01   3.3835498e+01
 1.0768133e+01   3.3861119e+01
 1.0773600e+01   3.3697174e+01
 1.0779067e+01   3.3777710e+01
 1.0784533e+01   3.3834090e+01
 1.0790000e+01   3.3705436e+01
 1.0795467e+01   3.3814462e+01
 1.0800933e+01   3.3726457e+01
 1.0806400e+01   3.3888818e+01
 1.0811867e+01   3.3659750e+01
 1.0817333e+01   3.3959326e+01
 1.0822800e+01   3.3699986e+01
 1.0828267e+01   3.3854513e+01
 1.0833733e+01   3.3858600e+01
 1.0839200e+01   3.3811645e+01
 1.0844667e+01   3.3885024e+01
 1.0850133e+01   3.4068467e+01
 1.0855600e+01   3.3864276e+01
 1.0861067e+01   3.4113810e+01
 1.0866533e+01   3.4411403e+01
 1.0872000e+01   3.4823234e+01
 1.0877467e+01   3.4833365e+01
 1.0882933e+01   3.5668615e+01
 1.0888400e+01   3.5961601e+01
 1.0893867e+01   3.6725960e+01
 1.0899333e+01   3.7321272e+01
 1.0904800e+01   3.7632246e+01
 1.0910267e+01   3.8043301e+01
 1.0915733e+01   3.8074340e+01
 1.0921200e+01   3.8173106e+01
 1.0926667e+01   3.7921548e+01
 1.0932133e+01   3.7523454e+01
 1.0937600e+01   3.7072755e+01
 1.0943067e+01   3.6373250e+01
 1.0948533e+01   3.6098721e+01
 1.0954000e+01   3.5415779e+01
 1.0959467e+01   3.5093392e+01
 1.0964933e+01   3.4830102e+01
 1.0970400e+01   3.4585818e+01
 1.0975867e+01   3.4593182e+01
 1.0981333e+01   3.4429312e+01
 1.0986800e+01   3.4409126e+01
 1.0992267e+01   3.4378721e+01
 1.0997733e+01   3.4411668e+01
 1.1003200e+01   3.4236177e+01
 1.1008667e+01   3.4552698e+01
 1.1014133e+01   3.4368990e+01
 1.1019600e+01   3.4533994e+01
 1.1025067e+01   3.4414379e+01
 1.1030533e+01   3.4547084e+01
 1.1036000e+01   3.4632904e+01
 1.1041467e+01   3.4704280e+01
 1.1046933e+01   3.4672934e+01
 1.1052400e+01   3.4836102e+01
 1.1057867e+01   3.4857018e+01
 1.1063333e+01   3.4940466e+01
 1.1068800e+01   3.5168856e+01
 1.1074267e+01   3.5391240e+01
 1.1079733e+01   3.5808708e+01
 1.1085200e+01   3.6277040e+01
 1.1090667e+01   3.7086082e+01
 1.1096133e+01   3.8390303e+01
 1.1101600e+01   4.0084939e+01
 1.1107067e+01   4.2500020e+01
 1.1112533e+01   4.5246030e+01
 1.1118000e+01   4.8701537e+01
 1.1123467e+01   5.1572883e+01
 1.1128933e+01   5.4729858e+01
 1.1134400e+01   5.6654282e+01
 1.1139867e+01   5.8454361e+01
 1.1145333e+01   5.8438871e+01
 1.1150800e+01   5.7855490e+01
 1.1156267e+01   5.5660388e+01
 1.1161733e+01   5.3502863e+01
 1.1167200e+01   4.9924468e+01
 1.1172667e+01   4.7065256e+01
 1.1178133e+01   4.3883437e+01
 1.1183600e+01   4.1532714e+01
 1.1189067e+01   3.9326233e+01
 1.1194533e+01   3.8034477e+01
