PWDR ff_004333_sum_norm_dc_0.tif Azm= 352.fxye Bank 1
2-Theta Angle (Degrees)
Intensity
       1500
 3.0000000e+00   4.4191011e+01
 3.0054667e+00   4.3952430e+01
 3.0109333e+00   4.3821799e+01
 3.0164000e+00   4.3600796e+01
 3.0218667e+00   4.3254939e+01
 3.0273333e+00   4.3235535e+01
 3.0328000e+00   4.3064491e+01
 3.0382667e+00   4.2983466e+01
 3.0437333e+00   4.2803710e+01
 3.0492000e+00   4.2798231e+01
 3.0546667e+00   4.2739267e+01
 3.0601333e+00   4.2366892e+01
 3.0656000e+00   4.2264892e+01
 3.0710667e+00   4.1982382e+01
 3.0765333e+00   4.1533798e+01
 3.0820000e+00   4.1467022e+01
 3.0874667e+00   4.1113749e+01
 3.0929333e+00   4.0906426e+01
 3.0984000e+00   4.0703076e+01
 3.1038667e+00   4.0466198e+01
 3.1093333e+00   4.0166422e+01
 3.1148000e+00   3.9886681e+01
 3.1202667e+00   3.9865104e+01
 3.1257333e+00   3.9661017e+01
 3.1312000e+00   3.9405024e+01
 3.1366667e+00   3.9312987e+01
 3.1421333e+00   3.9128409e+01
 3.1476000e+00   3.8914222e+01
 3.1530667e+00   3.8734486e+01
 3.1585333e+00   3.8444410e+01
 3.1640000e+00   3.8399116e+01
 3.1694667e+00   3.8271154e+01
 3.1749333e+00   3.8068563e+01
 3.1804000e+00   3.8003189e+01
 3.1858667e+00   3.7803085e+01
 3.1913333e+00   3.7733706e+01
 3.1968000e+00   3.7535015e+01
 3.2022667e+00   3.7571034e+01
 3.2077333e+00   3.7337057e+01
 3.2132000e+00   3.7202036e+01
 3.2186667e+00   3.7116578e+01
 3.2241333e+00   3.7114910e+01
 3.2296000e+00   3.6771117e+01
 3.2350667e+00   3.6734297e+01
 3.2405333e+00   3.6590585e+01
 3.2460000e+00   3.6482977e+01
 3.2514667e+00   3.6247538e+01
 3.2569333e+00   3.6163247e+01
 3.2624000e+00   3.6069625e+01
 3.2678667e+00   3.5920952e+01
 3.2733333e+00   3.5916590e+01
 3.2788000e+00   3.5743271e+01
 3.2842667e+00   3.5740463e+01
 3.2897333e+00   3.5586793e+01
 3.2952000e+00   3.5475357e+01
 3.3006667e+00   3.5311669e+01
 3.3061333e+00   3.5295197e+01
 3.3116000e+00   3.5138650e+01
 3.3170667e+00   3.5137825e+01
 3.3225333e+00   3.4888416e+01
 3.3280000e+00   3.4898417e+01
 3.3334667e+00   3.4724475e+01
 3.3389333e+00   3.4657236e+01
 3.3444000e+00   3.4597861e+01
 3.3498667e+00   3.4479610e+01
 3.3553333e+00   3.4403090e+01
 3.3608000e+00   3.4276416e+01
 3.3662667e+00   3.4290934e+01
 3.3717333e+00   3.4082826e+01
 3.3772000e+00   3.4035947e+01
 3.3826667e+00   3.3977872e+01
 3.3881333e+00   3.3838225e+01
 3.3936000e+00   3.3901638e+01
 3.3990667e+00   3.3869776e+01
 3.4045333e+00   3.3671819e+01
 3.4100000e+00   3.3670485e+01
 3.4154667e+00   3.3582450e+01
 3.4209333e+00   3.3462383e+01
 3.4264000e+00   3.3318877e+01
 3.4318667e+00   3.3326371e+01
 3.4373333e+00   3.3253823e+01
 3.4428000e+00   3.3170511e+01
 3.4482667e+00   3.3171808e+01
 3.4537333e+00   3.3025240e+01
 3.4592000e+00   3.2937842e+01
 3.4646667e+00   3.2937045e+01
 3.4701333e+00   3.2871270e+01
 3.4756000e+00   3.2782970e+01
 3.4810667e+00   3.2825430e+01
 3.4865333e+00   3.2656890e+01
 3.4920000e+00   3.2727980e+01
 3.4974667e+00   3.2626512e+01
 3.5029333e+00   3.2582127e+01
 3.5084000e+00   3.2623463e+01
 3.5138667e+00   3.2513237e+01
 3.5193333e+00   3.2578158e+01
 3.5248000e+00   3.2415518e+01
 3.5302667e+00   3.2527988e+01
 3.5357333e+00   3.2343673e+01
 3.5412000e+00   3.2444511e+01
 3.5466667e+00   3.2344190e+01
 3.5521333e+00   3.2376720e+01
 3.5576000e+00   3.2442490e+01
 3.5630667e+00   3.2526035e+01
 3.5685333e+00   3.2696594e+01
 3.5740000e+00   3.2560040e+01
 3.5794667e+00   3.2684781e+01
 3.5849333e+00   3.2696592e+01
 3.5904000e+00   3.2663828e+01
 3.5958667e+00   3.2566284e+01
 3.6013333e+00   3.2566093e+01
 3.6068000e+00   3.2379918e+01
 3.6122667e+00   3.2414351e+01
 3.6177333e+00   3.2132744e+01
 3.6232000e+00   3.2203947e+01
 3.6286667e+00   3.1947085e+01
 3.6341333e+00   3.1962020e+01
 3.6396000e+00   3.1825215e+01
 3.6450667e+00   3.1733421e+01
 3.6505333e+00   3.1689639e+01
 3.6560000e+00   3.1756036e+01
 3.6614667e+00   3.1508840e+01
 3.6669333e+00   3.1613361e+01
 3.6724000e+00   3.1728444e+01
 3.6778667e+00   3.1525497e+01
 3.6833333e+00   3.1632038e+01
 3.6888000e+00   3.1517103e+01
 3.6942667e+00   3.1629819e+01
 3.6997333e+00   3.1468350e+01
 3.7052000e+00   3.1510117e+01
 3.7106667e+00   3.1512231e+01
 3.7161333e+00   3.1557107e+01
 3.7216000e+00   3.1505031e+01
 3.7270667e+00   3.1434978e+01
 3.7325333e+00   3.1375454e+01
 3.7380000e+00   3.1389139e+01
 3.7434667e+00   3.1318298e+01
 3.7489333e+00   3.1349682e+01
 3.7544000e+00   3.1314056e+01
 3.7598667e+00   3.1231490e+01
 3.7653333e+00   3.1322465e+01
 3.7708000e+00   3.1316521e+01
 3.7762667e+00   3.1416444e+01
 3.7817333e+00   3.1278674e+01
 3.7872000e+00   3.1299418e+01
 3.7926667e+00   3.1372684e+01
 3.7981333e+00   3.1364673e+01
 3.8036000e+00   3.1286887e+01
 3.8090667e+00   3.1323408e+01
 3.8145333e+00   3.1408487e+01
 3.8200000e+00   3.1308365e+01
 3.8254667e+00   3.1386230e+01
 3.8309333e+00   3.1352358e+01
 3.8364000e+00   3.1354769e+01
 3.8418667e+00   3.1379586e+01
 3.8473333e+00   3.1517877e+01
 3.8528000e+00   3.1462216e+01
 3.8582667e+00   3.1563621e+01
 3.8637333e+00   3.1483835e+01
 3.8692000e+00   3.1642724e+01
 3.8746667e+00   3.1511907e+01
 3.8801333e+00   3.1583606e+01
 3.8856000e+00   3.1510729e+01
 3.8910667e+00   3.1673619e+01
 3.8965333e+00   3.1539693e+01
 3.9020000e+00   3.1699909e+01
 3.9074667e+00   3.1754291e+01
 3.9129333e+00   3.1807862e+01
 3.9184000e+00   3.1839296e+01
 3.9238667e+00   3.1935870e+01
 3.9293333e+00   3.2159179e+01
 3.9348000e+00   3.2186591e+01
 3.9402667e+00   3.2378889e+01
 3.9457333e+00   3.2452821e+01
 3.9512000e+00   3.2640825e+01
 3.9566667e+00   3.2748146e+01
 3.9621333e+00   3.2994145e+01
 3.9676000e+00   3.2855957e+01
 3.9730667e+00   3.2992398e+01
 3.9785333e+00   3.2728484e+01
 3.9840000e+00   3.2825453e+01
 3.9894667e+00   3.2765991e+01
 3.9949333e+00   3.2909846e+01
 4.0004000e+00   3.2718864e+01
 4.0058667e+00   3.3013545e+01
 4.0113333e+00   3.2943322e+01
 4.0168000e+00   3.3117357e+01
 4.0222667e+00   3.3201353e+01
 4.0277333e+00   3.3432611e+01
 4.0332000e+00   3.3602246e+01
 4.0386667e+00   3.3699094e+01
 4.0441333e+00   3.4193512e+01
 4.0496000e+00   3.4357519e+01
 4.0550667e+00   3.4849675e+01
 4.0605333e+00   3.5366344e+01
 4.0660000e+00   3.6135130e+01
 4.0714667e+00   3.7203857e+01
 4.0769333e+00   3.8777322e+01
 4.0824000e+00   4.0820366e+01
 4.0878667e+00   4.4445085e+01
 4.0933333e+00   4.9157312e+01
 4.0988000e+00   5.7282381e+01
 4.1042667e+00   6.7552104e+01
 4.1097333e+00   8.3924058e+01
 4.1152000e+00   1.0164636e+02
 4.1206667e+00   1.2988077e+02
 4.1261333e+00   1.5443796e+02
 4.1316000e+00   1.8915510e+02
 4.1370667e+00   2.1412240e+02
 4.1425333e+00   2.3922134e+02
 4.1480000e+00   2.5199588e+02
 4.1534667e+00   2.5790529e+02
 4.1589333e+00   2.4997834e+02
 4.1644000e+00   2.3757513e+02
 4.1698667e+00   2.1043411e+02
 4.1753333e+00   1.8449301e+02
 4.1808000e+00   1.5249909e+02
 4.1862667e+00   1.2735036e+02
 4.1917333e+00   1.0141457e+02
 4.1972000e+00   8.3381815e+01
 4.2026667e+00   6.8976760e+01
 4.2081333e+00   5.7921157e+01
 4.2136000e+00   5.1044988e+01
 4.2190667e+00   4.6104696e+01
 4.2245333e+00   4.2969877e+01
 4.2300000e+00   4.1075521e+01
 4.2354667e+00   3.9516473e+01
 4.2409333e+00   3.8711953e+01
 4.2464000e+00   3.7759950e+01
 4.2518667e+00   3.7329914e+01
 4.2573333e+00   3.6877802e+01
 4.2628000e+00   3.6294412e+01
 4.2682667e+00   3.6184647e+01
 4.2737333e+00   3.5762789e+01
 4.2792000e+00   3.5603436e+01
 4.2846667e+00   3.5443698e+01
 4.2901333e+00   3.5290616e+01
 4.2956000e+00   3.5130823e+01
 4.3010667e+00   3.5220359e+01
 4.3065333e+00   3.4950777e+01
 4.3120000e+00   3.5078389e+01
 4.3174667e+00   3.4824577e+01
 4.3229333e+00   3.4827448e+01
 4.3284000e+00   3.4611077e+01
 4.3338667e+00   3.4648400e+01
 4.3393333e+00   3.4547499e+01
 4.3448000e+00   3.4478727e+01
 4.3502667e+00   3.4573657e+01
 4.3557333e+00   3.4532884e+01
 4.3612000e+00   3.4598501e+01
 4.3666667e+00   3.4773135e+01
 4.3721333e+00   3.4894920e+01
 4.3776000e+00   3.4793286e+01
 4.3830667e+00   3.5117433e+01
 4.3885333e+00   3.5056423e+01
 4.3940000e+00   3.5476219e+01
 4.3994667e+00   3.5520328e+01
 4.4049333e+00   3.5894155e+01
 4.4104000e+00   3.6071147e+01
 4.4158667e+00   3.6932606e+01
 4.4213333e+00   3.7387776e+01
 4.4268000e+00   3.8363323e+01
 4.4322667e+00   3.9830159e+01
 4.4377333e+00   4.2558723e+01
 4.4432000e+00   4.6811942e+01
 4.4486667e+00   5.3728484e+01
 4.4541333e+00   6.4752797e+01
 4.4596000e+00   8.1902121e+01
 4.4650667e+00   1.0410749e+02
 4.4705333e+00   1.3350090e+02
 4.4760000e+00   1.7733539e+02
 4.4814667e+00   2.1624956e+02
 4.4869333e+00   2.6251286e+02
 4.4924000e+00   3.0142606e+02
 4.4978667e+00   3.3701840e+02
 4.5033333e+00   3.4984247e+02
 4.5088000e+00   3.5231230e+02
 4.5142667e+00   3.4322023e+02
 4.5197333e+00   3.0966993e+02
 4.5252000e+00   2.6657862e+02
 4.5306667e+00   2.2478832e+02
 4.5361333e+00   1.7637212e+02
 4.5416000e+00   1.4386491e+02
 4.5470667e+00   1.1107433e+02
 4.5525333e+00   9.4910801e+01
 4.5580000e+00   7.7346065e+01
 4.5634667e+00   6.9970421e+01
 4.5689333e+00   6.3047524e+01
 4.5744000e+00   6.0351313e+01
 4.5798667e+00   5.8366140e+01
 4.5853333e+00   5.7048071e+01
 4.5908000e+00   5.7123760e+01
 4.5962667e+00   5.7056256e+01
 4.6017333e+00   5.7365689e+01
 4.6072000e+00   5.7788258e+01
 4.6126667e+00   5.8444368e+01
 4.6181333e+00   6.0211252e+01
 4.6236000e+00   6.1060211e+01
 4.6290667e+00   6.7060606e+01
 4.6345333e+00   6.6326524e+01
 4.6400000e+00   7.3704842e+01
 4.6454667e+00   7.6571292e+01
 4.6509333e+00   8.6227505e+01
 4.6564000e+00   9.9473422e+01
 4.6618667e+00   1.2247524e+02
 4.6673333e+00   1.5438616e+02
 4.6728000e+00   2.0145410e+02
 4.6782667e+00   2.6630809e+02
 4.6837333e+00   3.5350047e+02
 4.6892000e+00   4.5717002e+02
 4.6946667e+00   5.7419685e+02
 4.7001333e+00   7.0193705e+02
 4.7056000e+00   8.2478423e+02
 4.7110667e+00   9.3549719e+02
 4.7165333e+00   1.0246800e+03
 4.7220000e+00   1.0614581e+03
 4.7274667e+00   1.0647806e+03
 4.7329333e+00   1.0113438e+03
 4.7384000e+00   9.2642491e+02
 4.7438667e+00   7.9419510e+02
 4.7493333e+00   6.5670506e+02
 4.7548000e+00   5.2986692e+02
 4.7602667e+00   4.0014311e+02
 4.7657333e+00   3.0528834e+02
 4.7712000e+00   2.2391531e+02
 4.7766667e+00   1.6362743e+02
 4.7821333e+00   1.2038816e+02
 4.7876000e+00   9.5492981e+01
 4.7930667e+00   7.5726917e+01
 4.7985333e+00   6.4235498e+01
 4.8040000e+00   5.7819392e+01
 4.8094667e+00   5.2474627e+01
 4.8149333e+00   4.9066419e+01
 4.8204000e+00   4.6966257e+01
 4.8258667e+00   4.5288767e+01
 4.8313333e+00   4.3740407e+01
 4.8368000e+00   4.3034838e+01
 4.8422667e+00   4.2293402e+01
 4.8477333e+00   4.1876355e+01
 4.8532000e+00   4.1387908e+01
 4.8586667e+00   4.0986802e+01
 4.8641333e+00   4.0633799e+01
 4.8696000e+00   3.9760056e+01
 4.8750667e+00   3.9291957e+01
 4.8805333e+00   3.8913656e+01
 4.8860000e+00   3.8717613e+01
 4.8914667e+00   3.8488998e+01
 4.8969333e+00   3.8390617e+01
 4.9024000e+00   3.8115078e+01
 4.9078667e+00   3.7883703e+01
 4.9133333e+00   3.7971468e+01
 4.9188000e+00   3.7807546e+01
 4.9242667e+00   3.7997405e+01
 4.9297333e+00   3.8068569e+01
 4.9352000e+00   3.8028091e+01
 4.9406667e+00   3.8349928e+01
 4.9461333e+00   3.8423093e+01
 4.9516000e+00   3.8782415e+01
 4.9570667e+00   3.9124550e+01
 4.9625333e+00   3.9603160e+01
 4.9680000e+00   3.9473581e+01
 4.9734667e+00   4.0162766e+01
 4.9789333e+00   4.0775845e+01
 4.9844000e+00   4.0953612e+01
 4.9898667e+00   4.2924522e+01
 4.9953333e+00   4.6271843e+01
 5.0008000e+00   5.3342986e+01
 5.0062667e+00   5.3778355e+01
 5.0117333e+00   7.6390749e+01
 5.0172000e+00   7.3812893e+01
 5.0226667e+00   1.1165101e+02
 5.0281333e+00   1.3233520e+02
 5.0336000e+00   1.3929127e+02
 5.0390667e+00   2.0908336e+02
 5.0445333e+00   2.6512950e+02
 5.0500000e+00   2.4714295e+02
 5.0554667e+00   3.9054345e+02
 5.0609333e+00   3.0199042e+02
 5.0664000e+00   4.5912833e+02
 5.0718667e+00   3.5036399e+02
 5.0773333e+00   4.1517181e+02
 5.0828000e+00   3.7400546e+02
 5.0882667e+00   3.8438453e+02
 5.0937333e+00   3.1791225e+02
 5.0992000e+00   2.7145289e+02
 5.1046667e+00   2.5301855e+02
 5.1101333e+00   1.6182515e+02
 5.1156000e+00   1.1730332e+02
 5.1210667e+00   8.2533692e+01
 5.1265333e+00   6.8834166e+01
 5.1320000e+00   5.7024913e+01
 5.1374667e+00   5.1159092e+01
 5.1429333e+00   4.8777269e+01
 5.1484000e+00   4.7655964e+01
 5.1538667e+00   4.8177330e+01
 5.1593333e+00   4.8291123e+01
 5.1648000e+00   4.9064056e+01
 5.1702667e+00   4.8554364e+01
 5.1757333e+00   4.9538320e+01
 5.1812000e+00   4.8412782e+01
 5.1866667e+00   4.8137095e+01
 5.1921333e+00   4.6836219e+01
 5.1976000e+00   4.5585589e+01
 5.2030667e+00   4.3990895e+01
 5.2085333e+00   4.2546504e+01
 5.2140000e+00   4.0661661e+01
 5.2194667e+00   3.9962851e+01
 5.2249333e+00   3.7663980e+01
 5.2304000e+00   3.7054799e+01
 5.2358667e+00   3.5494305e+01
 5.2413333e+00   3.4835770e+01
 5.2468000e+00   3.4021388e+01
 5.2522667e+00   3.3772996e+01
 5.2577333e+00   3.3255132e+01
 5.2632000e+00   3.3104740e+01
 5.2686667e+00   3.2880265e+01
 5.2741333e+00   3.2680973e+01
 5.2796000e+00   3.2607461e+01
 5.2850667e+00   3.2398857e+01
 5.2905333e+00   3.2151274e+01
 5.2960000e+00   3.1975777e+01
 5.3014667e+00   3.1823144e+01
 5.3069333e+00   3.1866847e+01
 5.3124000e+00   3.1484529e+01
 5.3178667e+00   3.1603503e+01
 5.3233333e+00   3.1441468e+01
 5.3288000e+00   3.1353335e+01
 5.3342667e+00   3.1304388e+01
 5.3397333e+00   3.1281830e+01
 5.3452000e+00   3.1179317e+01
 5.3506667e+00   3.1150367e+01
 5.3561333e+00   3.1091110e+01
 5.3616000e+00   3.0954686e+01
 5.3670667e+00   3.0949045e+01
 5.3725333e+00   3.0827453e+01
 5.3780000e+00   3.0747027e+01
 5.3834667e+00   3.0606432e+01
 5.3889333e+00   3.0590078e+01
 5.3944000e+00   3.0386878e+01
 5.3998667e+00   3.0428306e+01
 5.4053333e+00   3.0235133e+01
 5.4108000e+00   3.0303062e+01
 5.4162667e+00   3.0018274e+01
 5.4217333e+00   3.0134221e+01
 5.4272000e+00   2.9958184e+01
 5.4326667e+00   3.0013197e+01
 5.4381333e+00   2.9972284e+01
 5.4436000e+00   2.9973444e+01
 5.4490667e+00   2.9791013e+01
 5.4545333e+00   2.9897815e+01
 5.4600000e+00   2.9751443e+01
 5.4654667e+00   2.9727711e+01
 5.4709333e+00   2.9748812e+01
 5.4764000e+00   2.9627686e+01
 5.4818667e+00   2.9686705e+01
 5.4873333e+00   2.9637693e+01
 5.4928000e+00   2.9568706e+01
 5.4982667e+00   2.9535887e+01
 5.5037333e+00   2.9577008e+01
 5.5092000e+00   2.9464400e+01
 5.5146667e+00   2.9496956e+01
 5.5201333e+00   2.9490413e+01
 5.5256000e+00   2.9440895e+01
 5.5310667e+00   2.9440265e+01
 5.5365333e+00   2.9501264e+01
 5.5420000e+00   2.9417942e+01
 5.5474667e+00   2.9431538e+01
 5.5529333e+00   2.9428521e+01
 5.5584000e+00   2.9424082e+01
 5.5638667e+00   2.9466003e+01
 5.5693333e+00   2.9689336e+01
 5.5748000e+00   2.9526615e+01
 5.5802667e+00   3.0070215e+01
 5.5857333e+00   3.0071633e+01
 5.5912000e+00   2.9618168e+01
 5.5966667e+00   2.9810081e+01
 5.6021333e+00   2.9602912e+01
 5.6076000e+00   2.9717665e+01
 5.6130667e+00   2.9616972e+01
 5.6185333e+00   2.9721779e+01
 5.6240000e+00   2.9727589e+01
 5.6294667e+00   2.9627710e+01
 5.6349333e+00   2.9618290e+01
 5.6404000e+00   2.9578708e+01
 5.6458667e+00   2.9555646e+01
 5.6513333e+00   2.9632307e+01
 5.6568000e+00   2.9652521e+01
 5.6622667e+00   2.9502499e+01
 5.6677333e+00   2.9825628e+01
 5.6732000e+00   2.9634916e+01
 5.6786667e+00   2.9807418e+01
 5.6841333e+00   2.9748388e+01
 5.6896000e+00   2.9987567e+01
 5.6950667e+00   2.9922311e+01
 5.7005333e+00   3.0207978e+01
 5.7060000e+00   3.0101702e+01
 5.7114667e+00   3.0265411e+01
 5.7169333e+00   3.0300023e+01
 5.7224000e+00   3.0461806e+01
 5.7278667e+00   3.0553658e+01
 5.7333333e+00   3.0758960e+01
 5.7388000e+00   3.0980659e+01
 5.7442667e+00   3.1177109e+01
 5.7497333e+00   3.1462444e+01
 5.7552000e+00   3.1774269e+01
 5.7606667e+00   3.2203168e+01
 5.7661333e+00   3.2790351e+01
 5.7716000e+00   3.3297527e+01
 5.7770667e+00   3.5530522e+01
 5.7825333e+00   3.6671188e+01
 5.7880000e+00   4.6494912e+01
 5.7934667e+00   4.7390632e+01
 5.7989333e+00   6.3140488e+01
 5.8044000e+00   5.6224288e+01
 5.8098667e+00   8.2826805e+01
 5.8153333e+00   9.3655202e+01
 5.8208000e+00   1.1109885e+02
 5.8262667e+00   1.1312949e+02
 5.8317333e+00   1.7108646e+02
 5.8372000e+00   1.5789756e+02
 5.8426667e+00   2.1041659e+02
 5.8481333e+00   2.3887849e+02
 5.8536000e+00   2.2141787e+02
 5.8590667e+00   2.1604370e+02
 5.8645333e+00   2.3197151e+02
 5.8700000e+00   1.8461300e+02
 5.8754667e+00   1.8495182e+02
 5.8809333e+00   1.5662454e+02
 5.8864000e+00   1.5140760e+02
 5.8918667e+00   1.1661619e+02
 5.8973333e+00   1.1079944e+02
 5.9028000e+00   6.9891987e+01
 5.9082667e+00   7.4651358e+01
 5.9137333e+00   4.4149441e+01
 5.9192000e+00   4.2533281e+01
 5.9246667e+00   3.5527401e+01
 5.9301333e+00   3.3856475e+01
 5.9356000e+00   3.2878526e+01
 5.9410667e+00   3.2289973e+01
 5.9465333e+00   3.2064212e+01
 5.9520000e+00   3.1345794e+01
 5.9574667e+00   3.1506670e+01
 5.9629333e+00   3.1196456e+01
 5.9684000e+00   3.1157240e+01
 5.9738667e+00   3.1030598e+01
 5.9793333e+00   3.1228197e+01
 5.9848000e+00   3.1252233e+01
 5.9902667e+00   3.1069195e+01
 5.9957333e+00   3.1160028e+01
 6.0012000e+00   3.1072477e+01
 6.0066667e+00   3.1161554e+01
 6.0121333e+00   3.1389743e+01
 6.0176000e+00   3.1320398e+01
 6.0230667e+00   3.1537956e+01
 6.0285333e+00   3.1811868e+01
 6.0340000e+00   3.2098639e+01
 6.0394667e+00   3.2578742e+01
 6.0449333e+00   3.2985170e+01
 6.0504000e+00   3.4069698e+01
 6.0558667e+00   3.5293160e+01
 6.0613333e+00   3.7107930e+01
 6.0668000e+00   4.0201657e+01
 6.0722667e+00   4.4374399e+01
 6.0777333e+00   5.0384207e+01
 6.0832000e+00   5.9255264e+01
 6.0886667e+00   7.1661463e+01
 6.0941333e+00   8.5133748e+01
 6.0996000e+00   1.0478251e+02
 6.1050667e+00   1.2206227e+02
 6.1105333e+00   1.4436691e+02
 6.1160000e+00   1.5961657e+02
 6.1214667e+00   1.7545421e+02
 6.1269333e+00   1.8082921e+02
 6.1324000e+00   1.8511863e+02
 6.1378667e+00   1.7455294e+02
 6.1433333e+00   1.6820784e+02
 6.1488000e+00   1.4703001e+02
 6.1542667e+00   1.3182132e+02
 6.1597333e+00   1.1011032e+02
 6.1652000e+00   9.3672015e+01
 6.1706667e+00   7.7759599e+01
 6.1761333e+00   6.6645405e+01
 6.1816000e+00   5.5000727e+01
 6.1870667e+00   4.9085901e+01
 6.1925333e+00   4.3179725e+01
 6.1980000e+00   3.9499821e+01
 6.2034667e+00   3.6753386e+01
 6.2089333e+00   3.5113960e+01
 6.2144000e+00   3.3743428e+01
 6.2198667e+00   3.2740125e+01
 6.2253333e+00   3.2229034e+01
 6.2308000e+00   3.1509748e+01
 6.2362667e+00   3.1260667e+01
 6.2417333e+00   3.0796538e+01
 6.2472000e+00   3.0565178e+01
 6.2526667e+00   3.0340106e+01
 6.2581333e+00   3.0267805e+01
 6.2636000e+00   2.9956318e+01
 6.2690667e+00   2.9927431e+01
 6.2745333e+00   2.9767823e+01
 6.2800000e+00   2.9677995e+01
 6.2854667e+00   2.9626834e+01
 6.2909333e+00   2.9559530e+01
 6.2964000e+00   2.9397441e+01
 6.3018667e+00   2.9331509e+01
 6.3073333e+00   2.9359811e+01
 6.3128000e+00   2.9273169e+01
 6.3182667e+00   2.9221572e+01
 6.3237333e+00   2.9178591e+01
 6.3292000e+00   2.9118989e+01
 6.3346667e+00   2.9067383e+01
 6.3401333e+00   2.9148444e+01
 6.3456000e+00   2.9066797e+01
 6.3510667e+00   2.9164817e+01
 6.3565333e+00   2.9125904e+01
 6.3620000e+00   2.9143086e+01
 6.3674667e+00   2.9222994e+01
 6.3729333e+00   2.9163715e+01
 6.3784000e+00   2.9122443e+01
 6.3838667e+00   2.9182333e+01
 6.3893333e+00   2.9417694e+01
 6.3948000e+00   2.9135432e+01
 6.4002667e+00   2.9233069e+01
 6.4057333e+00   2.9173476e+01
 6.4112000e+00   2.9191833e+01
 6.4166667e+00   2.9088969e+01
 6.4221333e+00   2.9242706e+01
 6.4276000e+00   2.9124075e+01
 6.4330667e+00   2.9232643e+01
 6.4385333e+00   2.9252144e+01
 6.4440000e+00   2.9359726e+01
 6.4494667e+00   2.9252627e+01
 6.4549333e+00   2.9350278e+01
 6.4604000e+00   2.9292264e+01
 6.4658667e+00   2.9444296e+01
 6.4713333e+00   2.9318328e+01
 6.4768000e+00   2.9407227e+01
 6.4822667e+00   2.9390549e+01
 6.4877333e+00   2.9443270e+01
 6.4932000e+00   2.9336262e+01
 6.4986667e+00   2.9388897e+01
 6.5041333e+00   2.9319738e+01
 6.5096000e+00   2.9273348e+01
 6.5150667e+00   2.9519800e+01
 6.5205333e+00   2.9329243e+01
 6.5260000e+00   2.9401617e+01
 6.5314667e+00   2.9238581e+01
 6.5369333e+00   2.9410097e+01
 6.5424000e+00   2.9173719e+01
 6.5478667e+00   2.9523670e+01
 6.5533333e+00   2.9470941e+01
 6.5588000e+00   3.0061360e+01
 6.5642667e+00   3.0120227e+01
 6.5697333e+00   2.9406846e+01
 6.5752000e+00   2.9264358e+01
 6.5806667e+00   2.9037568e+01
 6.5861333e+00   2.8952204e+01
 6.5916000e+00   2.9057157e+01
 6.5970667e+00   2.8903518e+01
 6.6025333e+00   2.9244253e+01
 6.6080000e+00   2.9079698e+01
 6.6134667e+00   2.8809674e+01
 6.6189333e+00   2.8863033e+01
 6.6244000e+00   2.8742498e+01
 6.6298667e+00   2.8815800e+01
 6.6353333e+00   2.8729551e+01
 6.6408000e+00   2.8776908e+01
 6.6462667e+00   2.8727230e+01
 6.6517333e+00   2.8785217e+01
 6.6572000e+00   2.8717256e+01
 6.6626667e+00   2.8742222e+01
 6.6681333e+00   2.8673765e+01
 6.6736000e+00   2.8720451e+01
 6.6790667e+00   2.8650828e+01
 6.6845333e+00   2.8681641e+01
 6.6900000e+00   2.8674070e+01
 6.6954667e+00   2.8736462e+01
 6.7009333e+00   2.8699129e+01
 6.7064000e+00   2.8686903e+01
 6.7118667e+00   2.8775845e+01
 6.7173333e+00   2.8708462e+01
 6.7228000e+00   2.8805677e+01
 6.7282667e+00   2.8717860e+01
 6.7337333e+00   2.8784868e+01
 6.7392000e+00   2.8792486e+01
 6.7446667e+00   2.8811145e+01
 6.7501333e+00   2.8793608e+01
 6.7556000e+00   2.8867255e+01
 6.7610667e+00   2.8796910e+01
 6.7665333e+00   2.8906650e+01
 6.7720000e+00   2.8812049e+01
 6.7774667e+00   2.8868981e+01
 6.7829333e+00   2.8886978e+01
 6.7884000e+00   2.8902357e+01
 6.7938667e+00   2.8944400e+01
 6.7993333e+00   2.8895111e+01
 6.8048000e+00   2.9040675e+01
 6.8102667e+00   2.8928995e+01
 6.8157333e+00   2.9055493e+01
 6.8212000e+00   2.9011233e+01
 6.8266667e+00   2.9149806e+01
 6.8321333e+00   2.9078870e+01
 6.8376000e+00   2.9138320e+01
 6.8430667e+00   2.9116218e+01
 6.8485333e+00   2.9223756e+01
 6.8540000e+00   2.9170752e+01
 6.8594667e+00   2.9242310e+01
 6.8649333e+00   2.9259044e+01
 6.8704000e+00   2.9305746e+01
 6.8758667e+00   2.9397670e+01
 6.8813333e+00   2.9392029e+01
 6.8868000e+00   2.9347137e+01
 6.8922667e+00   2.9389456e+01
 6.8977333e+00   2.9409941e+01
 6.9032000e+00   2.9387562e+01
 6.9086667e+00   2.9593569e+01
 6.9141333e+00   2.9448931e+01
 6.9196000e+00   2.9666786e+01
 6.9250667e+00   2.9547527e+01
 6.9305333e+00   2.9646804e+01
 6.9360000e+00   2.9659841e+01
 6.9414667e+00   2.9819621e+01
 6.9469333e+00   2.9735271e+01
 6.9524000e+00   2.9903136e+01
 6.9578667e+00   2.9854971e+01
 6.9633333e+00   3.0025549e+01
 6.9688000e+00   3.0004955e+01
 6.9742667e+00   3.0202468e+01
 6.9797333e+00   3.0212241e+01
 6.9852000e+00   3.0304604e+01
 6.9906667e+00   3.0386441e+01
 6.9961333e+00   3.0488862e+01
 7.0016000e+00   3.0512300e+01
 7.0070667e+00   3.0704934e+01
 7.0125333e+00   3.0767043e+01
 7.0180000e+00   3.0777554e+01
 7.0234667e+00   3.1052552e+01
 7.0289333e+00   3.0973089e+01
 7.0344000e+00   3.1280772e+01
 7.0398667e+00   3.1292990e+01
 7.0453333e+00   3.1559662e+01
 7.0508000e+00   3.1625930e+01
 7.0562667e+00   3.1966771e+01
 7.0617333e+00   3.2064632e+01
 7.0672000e+00   3.2447092e+01
 7.0726667e+00   3.2712103e+01
 7.0781333e+00   3.3083107e+01
 7.0836000e+00   3.3559339e+01
 7.0890667e+00   3.4081697e+01
 7.0945333e+00   3.4807306e+01
 7.1000000e+00   3.5590427e+01
 7.1054667e+00   3.6928629e+01
 7.1109333e+00   3.8237477e+01
 7.1164000e+00   4.0364161e+01
 7.1218667e+00   4.2828627e+01
 7.1273333e+00   4.6333879e+01
 7.1328000e+00   5.0863581e+01
 7.1382667e+00   5.6412461e+01
 7.1437333e+00   6.4402734e+01
 7.1492000e+00   7.3198584e+01
 7.1546667e+00   8.4908712e+01
 7.1601333e+00   9.7152397e+01
 7.1656000e+00   1.1236340e+02
 7.1710667e+00   1.2604472e+02
 7.1765333e+00   1.4045915e+02
 7.1820000e+00   1.5182255e+02
 7.1874667e+00   1.6169817e+02
 7.1929333e+00   1.6592386e+02
 7.1984000e+00   1.6769263e+02
 7.2038667e+00   1.6418817e+02
 7.2093333e+00   1.5669052e+02
 7.2148000e+00   1.4624728e+02
 7.2202667e+00   1.3450130e+02
 7.2257333e+00   1.1924013e+02
 7.2312000e+00   1.0598010e+02
 7.2366667e+00   9.1793417e+01
 7.2421333e+00   7.9371546e+01
 7.2476000e+00   6.8769185e+01
 7.2530667e+00   6.0160238e+01
 7.2585333e+00   5.2744302e+01
 7.2640000e+00   4.7865599e+01
 7.2694667e+00   4.3617916e+01
 7.2749333e+00   4.0787703e+01
 7.2804000e+00   3.8668504e+01
 7.2858667e+00   3.7146558e+01
 7.2913333e+00   3.5903476e+01
 7.2968000e+00   3.5192613e+01
 7.3022667e+00   3.4661019e+01
 7.3077333e+00   3.4032170e+01
 7.3132000e+00   3.3823726e+01
 7.3186667e+00   3.3441353e+01
 7.3241333e+00   3.3290541e+01
 7.3296000e+00   3.2981804e+01
 7.3350667e+00   3.2950141e+01
 7.3405333e+00   3.2717674e+01
 7.3460000e+00   3.2724865e+01
 7.3514667e+00   3.2465877e+01
 7.3569333e+00   3.2402708e+01
 7.3624000e+00   3.2152786e+01
 7.3678667e+00   3.2169125e+01
 7.3733333e+00   3.1971099e+01
 7.3788000e+00   3.1830712e+01
 7.3842667e+00   3.1713568e+01
 7.3897333e+00   3.1629954e+01
 7.3952000e+00   3.1521211e+01
 7.4006667e+00   3.1439290e+01
 7.4061333e+00   3.1364462e+01
 7.4116000e+00   3.1204248e+01
 7.4170667e+00   3.1204100e+01
 7.4225333e+00   3.1060453e+01
 7.4280000e+00   3.1085678e+01
 7.4334667e+00   3.0917193e+01
 7.4389333e+00   3.1022112e+01
 7.4444000e+00   3.0840918e+01
 7.4498667e+00   3.0956778e+01
 7.4553333e+00   3.0824638e+01
 7.4608000e+00   3.0980981e+01
 7.4662667e+00   3.0871986e+01
 7.4717333e+00   3.0988781e+01
 7.4772000e+00   3.1654819e+01
 7.4826667e+00   3.1738553e+01
 7.4881333e+00   3.0903010e+01
 7.4936000e+00   3.1210760e+01
 7.4990667e+00   3.0992452e+01
 7.5045333e+00   3.0885649e+01
 7.5100000e+00   3.0928577e+01
 7.5154667e+00   3.0842019e+01
 7.5209333e+00   3.1022861e+01
 7.5264000e+00   3.0851274e+01
 7.5318667e+00   3.1061636e+01
 7.5373333e+00   3.0938288e+01
 7.5428000e+00   3.1051294e+01
 7.5482667e+00   3.0914527e+01
 7.5537333e+00   3.1111217e+01
 7.5592000e+00   3.1055385e+01
 7.5646667e+00   3.1103991e+01
 7.5701333e+00   3.1060490e+01
 7.5756000e+00   3.1141365e+01
 7.5810667e+00   3.1254906e+01
 7.5865333e+00   3.1113366e+01
 7.5920000e+00   3.1211974e+01
 7.5974667e+00   3.1401952e+01
 7.6029333e+00   3.1384926e+01
 7.6084000e+00   3.1327806e+01
 7.6138667e+00   3.1269553e+01
 7.6193333e+00   3.1430567e+01
 7.6248000e+00   3.1156496e+01
 7.6302667e+00   3.1137253e+01
 7.6357333e+00   3.1144500e+01
 7.6412000e+00   3.1142177e+01
 7.6466667e+00   3.1131657e+01
 7.6521333e+00   3.1108541e+01
 7.6576000e+00   3.1170634e+01
 7.6630667e+00   3.1080126e+01
 7.6685333e+00   3.1213519e+01
 7.6740000e+00   3.1146738e+01
 7.6794667e+00   3.1251678e+01
 7.6849333e+00   3.1278389e+01
 7.6904000e+00   3.1332738e+01
 7.6958667e+00   3.1292545e+01
 7.7013333e+00   3.1353028e+01
 7.7068000e+00   3.1321650e+01
 7.7122667e+00   3.1397823e+01
 7.7177333e+00   3.1585177e+01
 7.7232000e+00   3.1437461e+01
 7.7286667e+00   3.1611766e+01
 7.7341333e+00   3.1506430e+01
 7.7396000e+00   3.1694181e+01
 7.7450667e+00   3.1519535e+01
 7.7505333e+00   3.1761605e+01
 7.7560000e+00   3.1694995e+01
 7.7614667e+00   3.1916229e+01
 7.7669333e+00   3.1893259e+01
 7.7724000e+00   3.2107588e+01
 7.7778667e+00   3.2140016e+01
 7.7833333e+00   3.2399338e+01
 7.7888000e+00   3.2415231e+01
 7.7942667e+00   3.2624223e+01
 7.7997333e+00   3.2716799e+01
 7.8052000e+00   3.2862696e+01
 7.8106667e+00   3.3040482e+01
 7.8161333e+00   3.3325473e+01
 7.8216000e+00   3.3632846e+01
 7.8270667e+00   3.4062223e+01
 7.8325333e+00   3.4512002e+01
 7.8380000e+00   3.4847732e+01
 7.8434667e+00   3.5654330e+01
 7.8489333e+00   3.6404117e+01
 7.8544000e+00   3.7778180e+01
 7.8598667e+00   4.0067375e+01
 7.8653333e+00   4.2203762e+01
 7.8708000e+00   4.4403102e+01
 7.8762667e+00   4.8607119e+01
 7.8817333e+00   5.3781864e+01
 7.8872000e+00   6.1821310e+01
 7.8926667e+00   7.3371355e+01
 7.8981333e+00   8.6189154e+01
 7.9036000e+00   1.0392021e+02
 7.9090667e+00   1.2282267e+02
 7.9145333e+00   1.4217713e+02
 7.9200000e+00   1.6152352e+02
 7.9254667e+00   1.7663692e+02
 7.9309333e+00   1.8902855e+02
 7.9364000e+00   1.9260885e+02
 7.9418667e+00   1.9447140e+02
 7.9473333e+00   1.8522519e+02
 7.9528000e+00   1.7514337e+02
 7.9582667e+00   1.5858054e+02
 7.9637333e+00   1.4109195e+02
 7.9692000e+00   1.2238425e+02
 7.9746667e+00   1.0459440e+02
 7.9801333e+00   8.9590064e+01
 7.9856000e+00   7.5991134e+01
 7.9910667e+00   6.5612036e+01
 7.9965333e+00   5.7287317e+01
 8.0020000e+00   5.1266912e+01
 8.0074667e+00   4.6532700e+01
 8.0129333e+00   4.3773069e+01
 8.0184000e+00   4.1246051e+01
 8.0238667e+00   3.9769894e+01
 8.0293333e+00   3.8617449e+01
 8.0348000e+00   3.7578402e+01
 8.0402667e+00   3.7042714e+01
 8.0457333e+00   3.6307059e+01
 8.0512000e+00   3.6234150e+01
 8.0566667e+00   3.5614813e+01
 8.0621333e+00   3.5687152e+01
 8.0676000e+00   3.5181776e+01
 8.0730667e+00   3.5224916e+01
 8.0785333e+00   3.4975807e+01
 8.0840000e+00   3.5012167e+01
 8.0894667e+00   3.4862324e+01
 8.0949333e+00   3.4922626e+01
 8.1004000e+00   3.4867880e+01
 8.1058667e+00   3.4907575e+01
 8.1113333e+00   3.5532740e+01
 8.1168000e+00   3.4853377e+01
 8.1222667e+00   3.9623721e+01
 8.1277333e+00   3.4981123e+01
 8.1332000e+00   3.7173412e+01
 8.1386667e+00   3.5744513e+01
 8.1441333e+00   3.5400120e+01
 8.1496000e+00   3.5261001e+01
 8.1550667e+00   3.5567174e+01
 8.1605333e+00   3.5029306e+01
 8.1660000e+00   3.5795248e+01
 8.1714667e+00   3.5247111e+01
 8.1769333e+00   3.6074650e+01
 8.1824000e+00   3.5730022e+01
 8.1878667e+00   3.6399202e+01
 8.1933333e+00   3.6177364e+01
 8.1988000e+00   3.6919514e+01
 8.2042667e+00   3.6780951e+01
 8.2097333e+00   3.7922001e+01
 8.2152000e+00   3.8207108e+01
 8.2206667e+00   3.9841691e+01
 8.2261333e+00   4.2966394e+01
 8.2316000e+00   4.6496848e+01
 8.2370667e+00   6.2989981e+01
 8.2425333e+00   7.7350232e+01
 8.2480000e+00   1.1749401e+02
 8.2534667e+00   1.1057480e+02
 8.2589333e+00   1.6053815e+02
 8.2644000e+00   1.2200819e+02
 8.2698667e+00   1.5329765e+02
 8.2753333e+00   1.3363614e+02
 8.2808000e+00   1.6349175e+02
 8.2862667e+00   1.4469267e+02
 8.2917333e+00   1.7887769e+02
 8.2972000e+00   1.4362541e+02
 8.3026667e+00   1.9154528e+02
 8.3081333e+00   1.2874642e+02
 8.3136000e+00   1.8141810e+02
 8.3190667e+00   1.3892421e+02
 8.3245333e+00   1.4280850e+02
 8.3300000e+00   9.2274000e+01
 8.3354667e+00   1.0985699e+02
 8.3409333e+00   6.4211370e+01
 8.3464000e+00   8.2148904e+01
 8.3518667e+00   5.2547367e+01
 8.3573333e+00   4.9961177e+01
 8.3628000e+00   4.5692711e+01
 8.3682667e+00   4.2977328e+01
 8.3737333e+00   4.2526091e+01
 8.3792000e+00   4.1055248e+01
 8.3846667e+00   4.1320008e+01
 8.3901333e+00   4.0470223e+01
 8.3956000e+00   4.1454644e+01
 8.4010667e+00   4.1371127e+01
 8.4065333e+00   4.2784423e+01
 8.4120000e+00   4.3666849e+01
 8.4174667e+00   4.5852432e+01
 8.4229333e+00   4.8086267e+01
 8.4284000e+00   5.1796272e+01
 8.4338667e+00   5.6108476e+01
 8.4393333e+00   6.2706305e+01
 8.4448000e+00   7.0331053e+01
 8.4502667e+00   7.9992737e+01
 8.4557333e+00   9.2201049e+01
 8.4612000e+00   1.0521160e+02
 8.4666667e+00   1.2008008e+02
 8.4721333e+00   1.3461897e+02
 8.4776000e+00   1.4847667e+02
 8.4830667e+00   1.5996447e+02
 8.4885333e+00   1.6949062e+02
 8.4940000e+00   1.7404058e+02
 8.4994667e+00   1.7443877e+02
 8.5049333e+00   1.6937138e+02
 8.5104000e+00   1.6202777e+02
 8.5158667e+00   1.4998236e+02
 8.5213333e+00   1.3811150e+02
 8.5268000e+00   1.2325349e+02
 8.5322667e+00   1.1182619e+02
 8.5377333e+00   9.8704021e+01
 8.5432000e+00   9.0396992e+01
 8.5486667e+00   8.2768268e+01
 8.5541333e+00   7.9321924e+01
 8.5596000e+00   7.7245391e+01
 8.5650667e+00   7.8476738e+01
 8.5705333e+00   8.1969125e+01
 8.5760000e+00   8.7063673e+01
 8.5814667e+00   9.4545452e+01
 8.5869333e+00   1.0106973e+02
 8.5924000e+00   1.1054929e+02
 8.5978667e+00   1.1618867e+02
 8.6033333e+00   1.2529235e+02
 8.6088000e+00   1.2770962e+02
 8.6142667e+00   1.3173276e+02
 8.6197333e+00   1.3013775e+02
 8.6252000e+00   1.2823163e+02
 8.6306667e+00   1.2166849e+02
 8.6361333e+00   1.1458273e+02
 8.6416000e+00   1.0504517e+02
 8.6470667e+00   9.5818927e+01
 8.6525333e+00   8.5398111e+01
 8.6580000e+00   7.6399899e+01
 8.6634667e+00   6.8316221e+01
 8.6689333e+00   6.1104629e+01
 8.6744000e+00   5.4624275e+01
 8.6798667e+00   5.0045003e+01
 8.6853333e+00   4.6654993e+01
 8.6908000e+00   4.3334251e+01
 8.6962667e+00   4.1623089e+01
 8.7017333e+00   3.9498734e+01
 8.7072000e+00   3.8603142e+01
 8.7126667e+00   3.7143445e+01
 8.7181333e+00   3.6833344e+01
 8.7236000e+00   3.5751909e+01
 8.7290667e+00   3.5692595e+01
 8.7345333e+00   3.4944090e+01
 8.7400000e+00   3.4902935e+01
 8.7454667e+00   3.4274320e+01
 8.7509333e+00   3.4432741e+01
 8.7564000e+00   3.3925281e+01
 8.7618667e+00   3.4089467e+01
 8.7673333e+00   3.3672210e+01
 8.7728000e+00   3.3982948e+01
 8.7782667e+00   3.3410088e+01
 8.7837333e+00   3.3358533e+01
 8.7892000e+00   3.3085706e+01
 8.7946667e+00   3.3029104e+01
 8.8001333e+00   3.2993982e+01
 8.8056000e+00   3.2711880e+01
 8.8110667e+00   3.2728353e+01
 8.8165333e+00   3.2457808e+01
 8.8220000e+00   3.2487384e+01
 8.8274667e+00   3.2180545e+01
 8.8329333e+00   3.2338004e+01
 8.8384000e+00   3.2033144e+01
 8.8438667e+00   3.2200560e+01
 8.8493333e+00   3.1836089e+01
 8.8548000e+00   3.2102077e+01
 8.8602667e+00   3.1695041e+01
 8.8657333e+00   3.1916260e+01
 8.8712000e+00   3.1587677e+01
 8.8766667e+00   3.1750576e+01
 8.8821333e+00   3.1560793e+01
 8.8876000e+00   3.1745367e+01
 8.8930667e+00   3.1573669e+01
 8.8985333e+00   3.1745005e+01
 8.9040000e+00   3.1685684e+01
 8.9094667e+00   3.1790561e+01
 8.9149333e+00   3.1897792e+01
 8.9204000e+00   3.1966751e+01
 8.9258667e+00   3.2231092e+01
 8.9313333e+00   3.2347662e+01
 8.9368000e+00   3.2654141e+01
 8.9422667e+00   3.2917794e+01
 8.9477333e+00   3.3494115e+01
 8.9532000e+00   3.3862184e+01
 8.9586667e+00   3.4833898e+01
 8.9641333e+00   3.5509341e+01
 8.9696000e+00   3.7041530e+01
 8.9750667e+00   3.8277484e+01
 8.9805333e+00   4.0755987e+01
 8.9860000e+00   4.2431249e+01
 8.9914667e+00   4.5741156e+01
 8.9969333e+00   4.7674570e+01
 9.0024000e+00   5.0981721e+01
 9.0078667e+00   5.2802096e+01
 9.0133333e+00   5.4792879e+01
 9.0188000e+00   5.5477301e+01
 9.0242667e+00   5.5617239e+01
 9.0297333e+00   5.4974908e+01
 9.0352000e+00   5.2967432e+01
 9.0406667e+00   5.1156794e+01
 9.0461333e+00   4.7845839e+01
 9.0516000e+00   4.5346207e+01
 9.0570667e+00   4.1907513e+01
 9.0625333e+00   3.9791737e+01
 9.0680000e+00   3.7137969e+01
 9.0734667e+00   3.5685046e+01
 9.0789333e+00   3.3615120e+01
 9.0844000e+00   3.2917909e+01
 9.0898667e+00   3.1582381e+01
 9.0953333e+00   3.1147455e+01
 9.1008000e+00   3.0426717e+01
 9.1062667e+00   3.0251956e+01
 9.1117333e+00   2.9731445e+01
 9.1172000e+00   2.9732473e+01
 9.1226667e+00   2.9307233e+01
 9.1281333e+00   2.9286144e+01
 9.1336000e+00   2.9088758e+01
 9.1390667e+00   2.8999649e+01
 9.1445333e+00   2.8872464e+01
 9.1500000e+00   2.8739059e+01
 9.1554667e+00   2.8732443e+01
 9.1609333e+00   2.8758452e+01
 9.1664000e+00   2.8614847e+01
 9.1718667e+00   2.8499218e+01
 9.1773333e+00   2.8590127e+01
 9.1828000e+00   2.8333651e+01
 9.1882667e+00   2.8488088e+01
 9.1937333e+00   2.8182739e+01
 9.1992000e+00   2.8399715e+01
 9.2046667e+00   2.8010661e+01
 9.2101333e+00   2.8267986e+01
 9.2156000e+00   2.7941268e+01
 9.2210667e+00   2.8058540e+01
 9.2265333e+00   2.7827654e+01
 9.2320000e+00   2.8042711e+01
 9.2374667e+00   2.7765463e+01
 9.2429333e+00   2.7846401e+01
 9.2484000e+00   2.7736669e+01
 9.2538667e+00   2.7754354e+01
 9.2593333e+00   2.7590750e+01
 9.2648000e+00   2.7703039e+01
 9.2702667e+00   2.7563575e+01
 9.2757333e+00   2.7605276e+01
 9.2812000e+00   2.7453113e+01
 9.2866667e+00   2.7459431e+01
 9.2921333e+00   2.7359690e+01
 9.2976000e+00   2.7351214e+01
 9.3030667e+00   2.7335213e+01
 9.3085333e+00   2.7374579e+01
 9.3140000e+00   2.7349740e+01
 9.3194667e+00   2.7304865e+01
 9.3249333e+00   2.7395293e+01
 9.3304000e+00   2.7278883e+01
 9.3358667e+00   2.7410570e+01
 9.3413333e+00   2.7432414e+01
 9.3468000e+00   2.7705877e+01
 9.3522667e+00   2.7537160e+01
 9.3577333e+00   2.7895984e+01
 9.3632000e+00   2.7811927e+01
 9.3686667e+00   2.8192964e+01
 9.3741333e+00   2.8324524e+01
 9.3796000e+00   2.8783475e+01
 9.3850667e+00   2.9219059e+01
 9.3905333e+00   2.9898967e+01
 9.3960000e+00   3.0676865e+01
 9.4014667e+00   3.1774790e+01
 9.4069333e+00   3.2961984e+01
 9.4124000e+00   3.4427460e+01
 9.4178667e+00   3.6203520e+01
 9.4233333e+00   3.8044240e+01
 9.4288000e+00   4.0249417e+01
 9.4342667e+00   4.2300127e+01
 9.4397333e+00   4.4405787e+01
 9.4452000e+00   4.6055629e+01
 9.4506667e+00   4.7641683e+01
 9.4561333e+00   4.8224547e+01
 9.4616000e+00   4.8739159e+01
 9.4670667e+00   4.8191921e+01
 9.4725333e+00   4.7414314e+01
 9.4780000e+00   4.5619048e+01
 9.4834667e+00   4.3780830e+01
 9.4889333e+00   4.1522879e+01
 9.4944000e+00   3.9318257e+01
 9.4998667e+00   3.6975665e+01
 9.5053333e+00   3.4914618e+01
 9.5108000e+00   3.3135830e+01
 9.5162667e+00   3.1409159e+01
 9.5217333e+00   3.0244015e+01
 9.5272000e+00   2.9265974e+01
 9.5326667e+00   2.8556486e+01
 9.5381333e+00   2.7983149e+01
 9.5436000e+00   2.7614748e+01
 9.5490667e+00   2.7281922e+01
 9.5545333e+00   2.7110008e+01
 9.5600000e+00   2.7062421e+01
 9.5654667e+00   2.6930890e+01
 9.5709333e+00   2.6779631e+01
 9.5764000e+00   2.6788153e+01
 9.5818667e+00   2.6733449e+01
 9.5873333e+00   2.6841947e+01
 9.5928000e+00   2.6850315e+01
 9.5982667e+00   2.7002131e+01
 9.6037333e+00   2.6996436e+01
 9.6092000e+00   2.7009761e+01
 9.6146667e+00   2.6962229e+01
 9.6201333e+00   2.7164813e+01
 9.6256000e+00   2.7198602e+01
 9.6310667e+00   2.7588431e+01
 9.6365333e+00   2.7777347e+01
 9.6420000e+00   2.8582831e+01
 9.6474667e+00   2.9284424e+01
 9.6529333e+00   3.1584415e+01
 9.6584000e+00   3.4951136e+01
 9.6638667e+00   4.4470937e+01
 9.6693333e+00   5.9383502e+01
 9.6748000e+00   6.9492051e+01
 9.6802667e+00   1.0878048e+02
 9.6857333e+00   1.1292566e+02
 9.6912000e+00   1.3797743e+02
 9.6966667e+00   1.1764710e+02
 9.7021333e+00   1.6495641e+02
 9.7076000e+00   1.3462941e+02
 9.7130667e+00   1.5514134e+02
 9.7185333e+00   1.6323255e+02
 9.7240000e+00   1.5133791e+02
 9.7294667e+00   1.3224968e+02
 9.7349333e+00   1.5212090e+02
 9.7404000e+00   1.3275688e+02
 9.7458667e+00   1.0681034e+02
 9.7513333e+00   1.0848195e+02
 9.7568000e+00   8.6893159e+01
 9.7622667e+00   9.5522691e+01
 9.7677333e+00   6.8750070e+01
 9.7732000e+00   6.6275392e+01
 9.7786667e+00   5.8895590e+01
 9.7841333e+00   3.9280237e+01
 9.7896000e+00   3.6382747e+01
 9.7950667e+00   2.9821645e+01
 9.8005333e+00   2.8676732e+01
 9.8060000e+00   2.7669259e+01
 9.8114667e+00   2.7208641e+01
 9.8169333e+00   2.6887303e+01
 9.8224000e+00   2.6746957e+01
 9.8278667e+00   2.6567143e+01
 9.8333333e+00   2.6580264e+01
 9.8388000e+00   2.6531752e+01
 9.8442667e+00   2.6526500e+01
 9.8497333e+00   2.6583869e+01
 9.8552000e+00   2.6796932e+01
 9.8606667e+00   2.7101184e+01
 9.8661333e+00   2.7337409e+01
 9.8716000e+00   2.7790034e+01
 9.8770667e+00   2.8542550e+01
 9.8825333e+00   2.9406088e+01
 9.8880000e+00   3.0708402e+01
 9.8934667e+00   3.2114534e+01
 9.8989333e+00   3.3876753e+01
 9.9044000e+00   3.5745301e+01
 9.9098667e+00   3.7944031e+01
 9.9153333e+00   4.0040008e+01
 9.9208000e+00   4.1975148e+01
 9.9262667e+00   4.3292045e+01
 9.9317333e+00   4.4496305e+01
 9.9372000e+00   4.4830461e+01
 9.9426667e+00   4.4497811e+01
 9.9481333e+00   4.3806245e+01
 9.9536000e+00   4.2403734e+01
 9.9590667e+00   4.0667272e+01
 9.9645333e+00   3.8684154e+01
 9.9700000e+00   3.6676498e+01
 9.9754667e+00   3.4491893e+01
 9.9809333e+00   3.2742057e+01
 9.9864000e+00   3.1121420e+01
 9.9918667e+00   2.9835368e+01
 9.9973333e+00   2.8656431e+01
 1.0002800e+01   2.7974233e+01
 1.0008267e+01   2.7129655e+01
 1.0013733e+01   2.6867298e+01
 1.0019200e+01   2.6316258e+01
 1.0024667e+01   2.6189803e+01
 1.0030133e+01   2.5846193e+01
 1.0035600e+01   2.5849685e+01
 1.0041067e+01   2.5565156e+01
 1.0046533e+01   2.5631720e+01
 1.0052000e+01   2.5426871e+01
 1.0057467e+01   2.5638471e+01
 1.0062933e+01   2.5391228e+01
 1.0068400e+01   2.5828245e+01
 1.0073867e+01   2.5505922e+01
 1.0079333e+01   2.6647384e+01
 1.0084800e+01   2.5803831e+01
 1.0090267e+01   3.1384055e+01
 1.0095733e+01   2.6947964e+01
 1.0101200e+01   3.0511646e+01
 1.0106667e+01   4.8575714e+01
 1.0112133e+01   3.1381047e+01
 1.0117600e+01   6.0047923e+01
 1.0123067e+01   4.0746420e+01
 1.0128533e+01   5.7621310e+01
 1.0134000e+01   5.8888825e+01
 1.0139467e+01   8.9089479e+01
 1.0144933e+01   7.0259670e+01
 1.0150400e+01   9.6801554e+01
 1.0155867e+01   6.2022312e+01
 1.0161333e+01   7.5184418e+01
 1.0166800e+01   6.1785988e+01
 1.0172267e+01   7.1639637e+01
 1.0177733e+01   5.6780727e+01
 1.0183200e+01   6.0322161e+01
 1.0188667e+01   4.9225900e+01
 1.0194133e+01   5.1350467e+01
 1.0199600e+01   3.9498698e+01
 1.0205067e+01   4.1376395e+01
 1.0210533e+01   3.1631038e+01
 1.0216000e+01   3.4576565e+01
 1.0221467e+01   2.8078686e+01
 1.0226933e+01   2.6406370e+01
 1.0232400e+01   2.5728134e+01
 1.0237867e+01   2.5393190e+01
 1.0243333e+01   2.5254276e+01
 1.0248800e+01   2.5077208e+01
 1.0254267e+01   2.5024005e+01
 1.0259733e+01   2.4895188e+01
 1.0265200e+01   2.4927950e+01
 1.0270667e+01   2.4772737e+01
 1.0276133e+01   2.4864036e+01
 1.0281600e+01   2.4743056e+01
 1.0287067e+01   2.4826906e+01
 1.0292533e+01   2.4789220e+01
 1.0298000e+01   2.4822255e+01
 1.0303467e+01   2.4767150e+01
 1.0308933e+01   2.4870863e+01
 1.0314400e+01   2.4829615e+01
 1.0319867e+01   2.4826657e+01
 1.0325333e+01   2.4875695e+01
 1.0330800e+01   2.4948853e+01
 1.0336267e+01   2.4896174e+01
 1.0341733e+01   2.4997568e+01
 1.0347200e+01   2.5017277e+01
 1.0352667e+01   2.4993226e+01
 1.0358133e+01   2.5066809e+01
 1.0363600e+01   2.5044794e+01
 1.0369067e+01   2.5056950e+01
 1.0374533e+01   2.5052468e+01
 1.0380000e+01   2.5073047e+01
 1.0385467e+01   2.5015247e+01
 1.0390933e+01   2.4972878e+01
 1.0396400e+01   2.4926832e+01
 1.0401867e+01   2.4869733e+01
 1.0407333e+01   2.4780090e+01
 1.0412800e+01   2.4790470e+01
 1.0418267e+01   2.4729505e+01
 1.0423733e+01   2.4658312e+01
 1.0429200e+01   2.4586039e+01
 1.0434667e+01   2.4623061e+01
 1.0440133e+01   2.4517300e+01
 1.0445600e+01   2.4488922e+01
 1.0451067e+01   2.4452640e+01
 1.0456533e+01   2.4381955e+01
 1.0462000e+01   2.4390527e+01
 1.0467467e+01   2.4413439e+01
 1.0472933e+01   2.4348081e+01
 1.0478400e+01   2.4387915e+01
 1.0483867e+01   2.4376332e+01
 1.0489333e+01   2.4394259e+01
 1.0494800e+01   2.4501653e+01
 1.0500267e+01   2.4327266e+01
 1.0505733e+01   2.4732131e+01
 1.0511200e+01   2.4425494e+01
 1.0516667e+01   2.5530298e+01
 1.0522133e+01   2.4590726e+01
 1.0527600e+01   2.4638612e+01
 1.0533067e+01   2.4523542e+01
 1.0538533e+01   2.4497768e+01
 1.0544000e+01   2.4549288e+01
 1.0549467e+01   2.4514757e+01
 1.0554933e+01   2.4582628e+01
 1.0560400e+01   2.4544327e+01
 1.0565867e+01   2.4628433e+01
 1.0571333e+01   2.4666071e+01
 1.0576800e+01   2.4723243e+01
 1.0582267e+01   2.4737511e+01
 1.0587733e+01   2.4918919e+01
 1.0593200e+01   2.4873031e+01
 1.0598667e+01   2.5052454e+01
 1.0604133e+01   2.5135126e+01
 1.0609600e+01   2.5286981e+01
 1.0615067e+01   2.5392065e+01
 1.0620533e+01   2.5635821e+01
 1.0626000e+01   2.5854950e+01
 1.0631467e+01   2.6170831e+01
 1.0636933e+01   2.6625937e+01
 1.0642400e+01   2.7163660e+01
 1.0647867e+01   2.7838831e+01
 1.0653333e+01   2.8774368e+01
 1.0658800e+01   3.0048950e+01
 1.0664267e+01   3.1439459e+01
 1.0669733e+01   3.3596504e+01
 1.0675200e+01   3.5675857e+01
 1.0680667e+01   3.8744202e+01
 1.0686133e+01   4.1876555e+01
 1.0691600e+01   4.5818722e+01
 1.0697067e+01   4.9271403e+01
 1.0702533e+01   5.3779819e+01
 1.0708000e+01   5.7155361e+01
 1.0713467e+01   6.0772201e+01
 1.0718933e+01   6.3537416e+01
 1.0724400e+01   6.5416817e+01
 1.0729867e+01   6.5286611e+01
 1.0735333e+01   6.5212381e+01
 1.0740800e+01   6.2980364e+01
 1.0746267e+01   6.1051803e+01
 1.0751733e+01   5.6990585e+01
 1.0757200e+01   5.3709125e+01
 1.0762667e+01   4.9559199e+01
 1.0768133e+01   4.5675030e+01
 1.0773600e+01   4.1877389e+01
 1.0779067e+01   3.8950043e+01
 1.0784533e+01   3.5914202e+01
 1.0790000e+01   3.3723445e+01
 1.0795467e+01   3.1823334e+01
 1.0800933e+01   3.0310906e+01
 1.0806400e+01   2.9265985e+01
 1.0811867e+01   2.8287623e+01
 1.0817333e+01   2.7637509e+01
 1.0822800e+01   2.7102126e+01
 1.0828267e+01   2.6752928e+01
 1.0833733e+01   2.6422405e+01
 1.0839200e+01   2.6198666e+01
 1.0844667e+01   2.6010755e+01
 1.0850133e+01   2.5894889e+01
 1.0855600e+01   2.5679614e+01
 1.0861067e+01   2.5654005e+01
 1.0866533e+01   2.5578825e+01
 1.0872000e+01   2.5559967e+01
 1.0877467e+01   2.5585021e+01
 1.0882933e+01   2.5596458e+01
 1.0888400e+01   2.5494359e+01
 1.0893867e+01   2.5544754e+01
 1.0899333e+01   2.5556432e+01
 1.0904800e+01   2.5613472e+01
 1.0910267e+01   2.5740824e+01
 1.0915733e+01   2.5834420e+01
 1.0921200e+01   2.6041298e+01
 1.0926667e+01   2.6229950e+01
 1.0932133e+01   2.6508225e+01
 1.0937600e+01   2.6840048e+01
 1.0943067e+01   2.7165314e+01
 1.0948533e+01   2.7665311e+01
 1.0954000e+01   2.8117678e+01
 1.0959467e+01   2.8715588e+01
 1.0964933e+01   2.9375376e+01
 1.0970400e+01   3.0124956e+01
 1.0975867e+01   3.0981277e+01
 1.0981333e+01   3.1728310e+01
 1.0986800e+01   3.2489025e+01
 1.0992267e+01   3.3103609e+01
 1.0997733e+01   3.3736330e+01
 1.1003200e+01   3.4157762e+01
 1.1008667e+01   3.4408113e+01
 1.1014133e+01   3.4423474e+01
 1.1019600e+01   3.4408448e+01
 1.1025067e+01   3.3876618e+01
 1.1030533e+01   3.3458374e+01
 1.1036000e+01   3.2764511e+01
 1.1041467e+01   3.2108585e+01
 1.1046933e+01   3.1282456e+01
 1.1052400e+01   3.0682960e+01
 1.1057867e+01   2.9934209e+01
 1.1063333e+01   2.9366335e+01
 1.1068800e+01   2.8846131e+01
 1.1074267e+01   2.8569664e+01
 1.1079733e+01   2.8122579e+01
 1.1085200e+01   2.7759902e+01
 1.1090667e+01   2.7631975e+01
 1.1096133e+01   2.7508005e+01
 1.1101600e+01   2.7446306e+01
 1.1107067e+01   2.7548912e+01
 1.1112533e+01   2.7632225e+01
 1.1118000e+01   2.7892039e+01
 1.1123467e+01   2.8126983e+01
 1.1128933e+01   2.8610137e+01
 1.1134400e+01   2.9057500e+01
 1.1139867e+01   2.9785233e+01
 1.1145333e+01   3.0518178e+01
 1.1150800e+01   3.1505570e+01
 1.1156267e+01   3.2725709e+01
 1.1161733e+01   3.4221221e+01
 1.1167200e+01   3.6045830e+01
 1.1172667e+01   3.8183167e+01
 1.1178133e+01   4.0753903e+01
 1.1183600e+01   4.3673890e+01
 1.1189067e+01   4.7146824e+01
 1.1194533e+01   5.0622773e+01
