PWDR ff_004457_sum_norm_dc_0.tif Azm= 352.fxye Bank 1
2-Theta Angle (Degrees)
Intensity
       1500
 3.0000000e+00   4.7042246e+01
 3.0054667e+00   4.6643677e+01
 3.0109333e+00   4.6591997e+01
 3.0164000e+00   4.6226906e+01
 3.0218667e+00   4.5944090e+01
 3.0273333e+00   4.5807769e+01
 3.0328000e+00   4.5494992e+01
 3.0382667e+00   4.5246993e+01
 3.0437333e+00   4.5238523e+01
 3.0492000e+00   4.5081073e+01
 3.0546667e+00   4.5018067e+01
 3.0601333e+00   4.4866822e+01
 3.0656000e+00   4.4744092e+01
 3.0710667e+00   4.4504174e+01
 3.0765333e+00   4.4384394e+01
 3.0820000e+00   4.4321687e+01
 3.0874667e+00   4.3809976e+01
 3.0929333e+00   4.4000348e+01
 3.0984000e+00   4.3575600e+01
 3.1038667e+00   4.3805625e+01
 3.1093333e+00   4.3199924e+01
 3.1148000e+00   4.3205796e+01
 3.1202667e+00   4.3046999e+01
 3.1257333e+00   4.3181297e+01
 3.1312000e+00   4.2854792e+01
 3.1366667e+00   4.2859798e+01
 3.1421333e+00   4.2590585e+01
 3.1476000e+00   4.2486931e+01
 3.1530667e+00   4.2182370e+01
 3.1585333e+00   4.2135046e+01
 3.1640000e+00   4.2067887e+01
 3.1694667e+00   4.1781805e+01
 3.1749333e+00   4.1906728e+01
 3.1804000e+00   4.1691667e+01
 3.1858667e+00   4.1658821e+01
 3.1913333e+00   4.1390288e+01
 3.1968000e+00   4.1374815e+01
 3.2022667e+00   4.1247991e+01
 3.2077333e+00   4.1217969e+01
 3.2132000e+00   4.0967033e+01
 3.2186667e+00   4.1160253e+01
 3.2241333e+00   4.0666427e+01
 3.2296000e+00   4.0887282e+01
 3.2350667e+00   4.0709920e+01
 3.2405333e+00   4.0631524e+01
 3.2460000e+00   4.0313209e+01
 3.2514667e+00   4.0184466e+01
 3.2569333e+00   4.0165637e+01
 3.2624000e+00   3.9974188e+01
 3.2678667e+00   4.0020506e+01
 3.2733333e+00   3.9859824e+01
 3.2788000e+00   4.0062242e+01
 3.2842667e+00   3.9945196e+01
 3.2897333e+00   4.0256160e+01
 3.2952000e+00   3.9877869e+01
 3.3006667e+00   4.0098958e+01
 3.3061333e+00   3.9780028e+01
 3.3116000e+00   3.9896623e+01
 3.3170667e+00   3.9529765e+01
 3.3225333e+00   3.9976947e+01
 3.3280000e+00   3.9268839e+01
 3.3334667e+00   3.9386567e+01
 3.3389333e+00   3.9453626e+01
 3.3444000e+00   3.9235809e+01
 3.3498667e+00   3.9238430e+01
 3.3553333e+00   3.9175254e+01
 3.3608000e+00   3.9190523e+01
 3.3662667e+00   3.9101683e+01
 3.3717333e+00   3.9359330e+01
 3.3772000e+00   3.8910833e+01
 3.3826667e+00   4.1407512e+01
 3.3881333e+00   3.8834250e+01
 3.3936000e+00   3.8874929e+01
 3.3990667e+00   3.9144132e+01
 3.4045333e+00   3.8677736e+01
 3.4100000e+00   3.8713060e+01
 3.4154667e+00   3.8602262e+01
 3.4209333e+00   3.8510072e+01
 3.4264000e+00   3.8442293e+01
 3.4318667e+00   3.8480298e+01
 3.4373333e+00   3.8370786e+01
 3.4428000e+00   3.8546475e+01
 3.4482667e+00   3.8281718e+01
 3.4537333e+00   3.8555764e+01
 3.4592000e+00   3.8221104e+01
 3.4646667e+00   3.8346996e+01
 3.4701333e+00   3.8429680e+01
 3.4756000e+00   3.8433976e+01
 3.4810667e+00   3.8492533e+01
 3.4865333e+00   3.8592654e+01
 3.4920000e+00   3.8417111e+01
 3.4974667e+00   3.8421623e+01
 3.5029333e+00   3.8486096e+01
 3.5084000e+00   3.8462292e+01
 3.5138667e+00   3.8609418e+01
 3.5193333e+00   3.8290876e+01
 3.5248000e+00   3.8651031e+01
 3.5302667e+00   3.8697247e+01
 3.5357333e+00   3.8482228e+01
 3.5412000e+00   3.8456659e+01
 3.5466667e+00   3.8300979e+01
 3.5521333e+00   3.8414347e+01
 3.5576000e+00   3.8111309e+01
 3.5630667e+00   3.8217905e+01
 3.5685333e+00   3.8232435e+01
 3.5740000e+00   3.8233539e+01
 3.5794667e+00   3.8201979e+01
 3.5849333e+00   3.8445217e+01
 3.5904000e+00   3.8403477e+01
 3.5958667e+00   3.8580999e+01
 3.6013333e+00   3.8476345e+01
 3.6068000e+00   3.8710410e+01
 3.6122667e+00   3.8588604e+01
 3.6177333e+00   3.8498836e+01
 3.6232000e+00   3.8646930e+01
 3.6286667e+00   3.8517879e+01
 3.6341333e+00   3.8594514e+01
 3.6396000e+00   3.8950028e+01
 3.6450667e+00   3.8639723e+01
 3.6505333e+00   3.8809963e+01
 3.6560000e+00   3.9074448e+01
 3.6614667e+00   3.9037214e+01
 3.6669333e+00   3.9049084e+01
 3.6724000e+00   3.9321162e+01
 3.6778667e+00   3.9114338e+01
 3.6833333e+00   3.9221839e+01
 3.6888000e+00   3.9092695e+01
 3.6942667e+00   3.9296294e+01
 3.6997333e+00   3.9093615e+01
 3.7052000e+00   3.9275056e+01
 3.7106667e+00   3.9338600e+01
 3.7161333e+00   3.9496029e+01
 3.7216000e+00   3.9538841e+01
 3.7270667e+00   3.9434077e+01
 3.7325333e+00   3.9768926e+01
 3.7380000e+00   3.9524067e+01
 3.7434667e+00   3.9924826e+01
 3.7489333e+00   3.9751280e+01
 3.7544000e+00   3.9947081e+01
 3.7598667e+00   3.9887867e+01
 3.7653333e+00   4.0015405e+01
 3.7708000e+00   4.0054464e+01
 3.7762667e+00   4.0136954e+01
 3.7817333e+00   4.0150019e+01
 3.7872000e+00   4.0396464e+01
 3.7926667e+00   4.0480853e+01
 3.7981333e+00   4.0523428e+01
 3.8036000e+00   4.0659698e+01
 3.8090667e+00   4.0832912e+01
 3.8145333e+00   4.0757808e+01
 3.8200000e+00   4.0854875e+01
 3.8254667e+00   4.0959856e+01
 3.8309333e+00   4.0884912e+01
 3.8364000e+00   4.1059581e+01
 3.8418667e+00   4.1147646e+01
 3.8473333e+00   4.1259900e+01
 3.8528000e+00   4.1307630e+01
 3.8582667e+00   4.1361244e+01
 3.8637333e+00   4.1644058e+01
 3.8692000e+00   4.1594147e+01
 3.8746667e+00   4.1765854e+01
 3.8801333e+00   4.1947184e+01
 3.8856000e+00   4.2023067e+01
 3.8910667e+00   4.2310442e+01
 3.8965333e+00   4.2286465e+01
 3.9020000e+00   4.2653060e+01
 3.9074667e+00   4.2639326e+01
 3.9129333e+00   4.2436086e+01
 3.9184000e+00   4.2519532e+01
 3.9238667e+00   4.2568638e+01
 3.9293333e+00   4.2726297e+01
 3.9348000e+00   4.2657370e+01
 3.9402667e+00   4.2785076e+01
 3.9457333e+00   4.2877126e+01
 3.9512000e+00   4.2941240e+01
 3.9566667e+00   4.2887476e+01
 3.9621333e+00   4.2985454e+01
 3.9676000e+00   4.3178937e+01
 3.9730667e+00   4.2919506e+01
 3.9785333e+00   4.3366183e+01
 3.9840000e+00   4.3104026e+01
 3.9894667e+00   4.3271318e+01
 3.9949333e+00   4.3399733e+01
 4.0004000e+00   4.3442854e+01
 4.0058667e+00   4.3634730e+01
 4.0113333e+00   4.3637730e+01
 4.0168000e+00   4.3975832e+01
 4.0222667e+00   4.4044036e+01
 4.0277333e+00   4.4285349e+01
 4.0332000e+00   4.4581177e+01
 4.0386667e+00   4.4785546e+01
 4.0441333e+00   4.5967783e+01
 4.0496000e+00   4.5173544e+01
 4.0550667e+00   4.5338321e+01
 4.0605333e+00   4.5747368e+01
 4.0660000e+00   4.5871198e+01
 4.0714667e+00   4.6998695e+01
 4.0769333e+00   4.7474200e+01
 4.0824000e+00   4.6683487e+01
 4.0878667e+00   4.7705253e+01
 4.0933333e+00   4.7384275e+01
 4.0988000e+00   4.7518126e+01
 4.1042667e+00   4.7850615e+01
 4.1097333e+00   4.7772425e+01
 4.1152000e+00   4.8199972e+01
 4.1206667e+00   4.7991497e+01
 4.1261333e+00   4.8558220e+01
 4.1316000e+00   4.8219334e+01
 4.1370667e+00   5.0587697e+01
 4.1425333e+00   4.7917249e+01
 4.1480000e+00   4.7926556e+01
 4.1534667e+00   4.7822920e+01
 4.1589333e+00   4.7651342e+01
 4.1644000e+00   4.7783440e+01
 4.1698667e+00   4.7758545e+01
 4.1753333e+00   4.8039173e+01
 4.1808000e+00   4.7974845e+01
 4.1862667e+00   4.8271122e+01
 4.1917333e+00   4.8316155e+01
 4.1972000e+00   4.8508852e+01
 4.2026667e+00   4.8517075e+01
 4.2081333e+00   4.8801552e+01
 4.2136000e+00   4.8701851e+01
 4.2190667e+00   4.8901176e+01
 4.2245333e+00   4.8825210e+01
 4.2300000e+00   4.9175941e+01
 4.2354667e+00   4.9012313e+01
 4.2409333e+00   4.9312744e+01
 4.2464000e+00   4.9270083e+01
 4.2518667e+00   4.9595689e+01
 4.2573333e+00   4.9829228e+01
 4.2628000e+00   5.0258462e+01
 4.2682667e+00   5.0024099e+01
 4.2737333e+00   5.0636053e+01
 4.2792000e+00   5.0274035e+01
 4.2846667e+00   5.0524033e+01
 4.2901333e+00   5.0855604e+01
 4.2956000e+00   5.0787086e+01
 4.3010667e+00   5.1334301e+01
 4.3065333e+00   5.1236516e+01
 4.3120000e+00   5.1575071e+01
 4.3174667e+00   5.1611324e+01
 4.3229333e+00   5.2006695e+01
 4.3284000e+00   5.2074774e+01
 4.3338667e+00   5.2440417e+01
 4.3393333e+00   5.2511895e+01
 4.3448000e+00   5.3059222e+01
 4.3502667e+00   5.3230867e+01
 4.3557333e+00   5.3576858e+01
 4.3612000e+00   5.4035738e+01
 4.3666667e+00   5.4168197e+01
 4.3721333e+00   5.4713826e+01
 4.3776000e+00   5.5003212e+01
 4.3830667e+00   5.5524785e+01
 4.3885333e+00   5.5756456e+01
 4.3940000e+00   5.6663327e+01
 4.3994667e+00   5.6939254e+01
 4.4049333e+00   5.7734182e+01
 4.4104000e+00   5.8306404e+01
 4.4158667e+00   5.8943541e+01
 4.4213333e+00   5.9629580e+01
 4.4268000e+00   5.9880991e+01
 4.4322667e+00   6.0667164e+01
 4.4377333e+00   6.1076532e+01
 4.4432000e+00   6.1625568e+01
 4.4486667e+00   6.2709759e+01
 4.4541333e+00   6.3425349e+01
 4.4596000e+00   6.4929303e+01
 4.4650667e+00   6.6666672e+01
 4.4705333e+00   6.9542076e+01
 4.4760000e+00   7.3591661e+01
 4.4814667e+00   8.1451371e+01
 4.4869333e+00   8.8970883e+01
 4.4924000e+00   1.0565345e+02
 4.4978667e+00   1.4168523e+02
 4.5033333e+00   1.7587761e+02
 4.5088000e+00   2.0971000e+02
 4.5142667e+00   2.4403904e+02
 4.5197333e+00   2.2383956e+02
 4.5252000e+00   1.8680887e+02
 4.5306667e+00   1.8790348e+02
 4.5361333e+00   1.5406656e+02
 4.5416000e+00   1.2873119e+02
 4.5470667e+00   1.1382309e+02
 4.5525333e+00   1.2583604e+02
 4.5580000e+00   8.6770546e+01
 4.5634667e+00   8.6347456e+01
 4.5689333e+00   7.2012755e+01
 4.5744000e+00   6.8606331e+01
 4.5798667e+00   6.5870150e+01
 4.5853333e+00   6.4674937e+01
 4.5908000e+00   6.3906072e+01
 4.5962667e+00   6.3010393e+01
 4.6017333e+00   6.2617953e+01
 4.6072000e+00   6.2748714e+01
 4.6126667e+00   6.1934980e+01
 4.6181333e+00   6.2473473e+01
 4.6236000e+00   6.2514009e+01
 4.6290667e+00   6.2749589e+01
 4.6345333e+00   6.3266202e+01
 4.6400000e+00   6.4157134e+01
 4.6454667e+00   6.4653690e+01
 4.6509333e+00   6.5123732e+01
 4.6564000e+00   6.5364397e+01
 4.6618667e+00   6.5242764e+01
 4.6673333e+00   6.4571888e+01
 4.6728000e+00   6.4011956e+01
 4.6782667e+00   6.3577460e+01
 4.6837333e+00   6.2770384e+01
 4.6892000e+00   6.2518819e+01
 4.6946667e+00   6.1765692e+01
 4.7001333e+00   6.1458543e+01
 4.7056000e+00   6.1260444e+01
 4.7110667e+00   6.0995563e+01
 4.7165333e+00   6.1007987e+01
 4.7220000e+00   6.0788414e+01
 4.7274667e+00   6.0792873e+01
 4.7329333e+00   6.0797351e+01
 4.7384000e+00   6.0406682e+01
 4.7438667e+00   6.0312414e+01
 4.7493333e+00   6.0708332e+01
 4.7548000e+00   6.0202134e+01
 4.7602667e+00   5.9957872e+01
 4.7657333e+00   6.2187630e+01
 4.7712000e+00   6.1619041e+01
 4.7766667e+00   6.1705540e+01
 4.7821333e+00   6.1308486e+01
 4.7876000e+00   6.0039226e+01
 4.7930667e+00   5.9720471e+01
 4.7985333e+00   6.0029084e+01
 4.8040000e+00   5.9965374e+01
 4.8094667e+00   6.0154464e+01
 4.8149333e+00   6.0504412e+01
 4.8204000e+00   6.0723085e+01
 4.8258667e+00   6.0995070e+01
 4.8313333e+00   6.1309032e+01
 4.8368000e+00   6.1944726e+01
 4.8422667e+00   6.1700380e+01
 4.8477333e+00   6.3018380e+01
 4.8532000e+00   6.2618590e+01
 4.8586667e+00   6.3863889e+01
 4.8641333e+00   6.3509686e+01
 4.8696000e+00   6.5395024e+01
 4.8750667e+00   6.4158416e+01
 4.8805333e+00   6.6743630e+01
 4.8860000e+00   6.6003152e+01
 4.8914667e+00   6.8433036e+01
 4.8969333e+00   6.9559734e+01
 4.9024000e+00   7.2488886e+01
 4.9078667e+00   7.5963934e+01
 4.9133333e+00   8.2312651e+01
 4.9188000e+00   9.4749021e+01
 4.9242667e+00   1.1720496e+02
 4.9297333e+00   1.3966599e+02
 4.9352000e+00   1.5789600e+02
 4.9406667e+00   2.9887550e+02
 4.9461333e+00   2.1646228e+02
 4.9516000e+00   4.4430878e+02
 4.9570667e+00   3.2730854e+02
 4.9625333e+00   5.0892415e+02
 4.9680000e+00   4.3177157e+02
 4.9734667e+00   4.3814945e+02
 4.9789333e+00   4.8232206e+02
 4.9844000e+00   4.0812139e+02
 4.9898667e+00   4.9299622e+02
 4.9953333e+00   3.7439515e+02
 5.0008000e+00   2.9222986e+02
 5.0062667e+00   2.4424040e+02
 5.0117333e+00   1.7407337e+02
 5.0172000e+00   1.5741425e+02
 5.0226667e+00   1.1150113e+02
 5.0281333e+00   9.6985778e+01
 5.0336000e+00   8.4495170e+01
 5.0390667e+00   7.6078971e+01
 5.0445333e+00   7.3487467e+01
 5.0500000e+00   7.0473682e+01
 5.0554667e+00   6.8914165e+01
 5.0609333e+00   6.7619203e+01
 5.0664000e+00   6.6300833e+01
 5.0718667e+00   6.6084484e+01
 5.0773333e+00   6.4558572e+01
 5.0828000e+00   6.4109564e+01
 5.0882667e+00   6.3030781e+01
 5.0937333e+00   6.2857141e+01
 5.0992000e+00   6.1455909e+01
 5.1046667e+00   6.1041898e+01
 5.1101333e+00   6.0564929e+01
 5.1156000e+00   5.9923242e+01
 5.1210667e+00   5.9230191e+01
 5.1265333e+00   5.9361667e+01
 5.1320000e+00   5.8252165e+01
 5.1374667e+00   5.8365997e+01
 5.1429333e+00   5.7670741e+01
 5.1484000e+00   5.7185414e+01
 5.1538667e+00   5.6995714e+01
 5.1593333e+00   5.6435375e+01
 5.1648000e+00   5.6758283e+01
 5.1702667e+00   5.5706978e+01
 5.1757333e+00   5.6023051e+01
 5.1812000e+00   5.5204827e+01
 5.1866667e+00   5.5324357e+01
 5.1921333e+00   5.4756838e+01
 5.1976000e+00   5.4722792e+01
 5.2030667e+00   5.4115018e+01
 5.2085333e+00   5.4045847e+01
 5.2140000e+00   5.3602865e+01
 5.2194667e+00   5.3631543e+01
 5.2249333e+00   5.3262310e+01
 5.2304000e+00   5.3017429e+01
 5.2358667e+00   5.2877105e+01
 5.2413333e+00   5.2745910e+01
 5.2468000e+00   5.2492224e+01
 5.2522667e+00   5.2343543e+01
 5.2577333e+00   5.2232524e+01
 5.2632000e+00   5.1854018e+01
 5.2686667e+00   5.2014470e+01
 5.2741333e+00   5.1497685e+01
 5.2796000e+00   5.1731617e+01
 5.2850667e+00   5.1247735e+01
 5.2905333e+00   5.1326616e+01
 5.2960000e+00   5.0791199e+01
 5.3014667e+00   5.1153131e+01
 5.3069333e+00   5.0688074e+01
 5.3124000e+00   5.0805746e+01
 5.3178667e+00   5.0581746e+01
 5.3233333e+00   5.0585515e+01
 5.3288000e+00   5.0159654e+01
 5.3342667e+00   5.0324876e+01
 5.3397333e+00   5.0082754e+01
 5.3452000e+00   5.0024667e+01
 5.3506667e+00   5.0080072e+01
 5.3561333e+00   5.0005555e+01
 5.3616000e+00   5.0406336e+01
 5.3670667e+00   5.0005713e+01
 5.3725333e+00   5.5406802e+01
 5.3780000e+00   5.0389384e+01
 5.3834667e+00   5.0898986e+01
 5.3889333e+00   4.9662596e+01
 5.3944000e+00   4.9313426e+01
 5.3998667e+00   4.9019809e+01
 5.4053333e+00   4.9024704e+01
 5.4108000e+00   4.8685289e+01
 5.4162667e+00   4.8863230e+01
 5.4217333e+00   4.8570747e+01
 5.4272000e+00   4.8511828e+01
 5.4326667e+00   4.8458701e+01
 5.4381333e+00   4.8093348e+01
 5.4436000e+00   4.8138676e+01
 5.4490667e+00   4.8117376e+01
 5.4545333e+00   4.7998426e+01
 5.4600000e+00   4.7911277e+01
 5.4654667e+00   4.7742238e+01
 5.4709333e+00   4.7839705e+01
 5.4764000e+00   4.7665779e+01
 5.4818667e+00   4.7758666e+01
 5.4873333e+00   4.7753476e+01
 5.4928000e+00   4.7581305e+01
 5.4982667e+00   4.7790122e+01
 5.5037333e+00   4.7523570e+01
 5.5092000e+00   4.7577308e+01
 5.5146667e+00   4.7665430e+01
 5.5201333e+00   4.7486195e+01
 5.5256000e+00   4.7497852e+01
 5.5310667e+00   4.7414388e+01
 5.5365333e+00   4.7497763e+01
 5.5420000e+00   4.7284733e+01
 5.5474667e+00   4.7271313e+01
 5.5529333e+00   4.7348848e+01
 5.5584000e+00   4.7064311e+01
 5.5638667e+00   4.7149222e+01
 5.5693333e+00   4.7350076e+01
 5.5748000e+00   4.7973463e+01
 5.5802667e+00   4.7131664e+01
 5.5857333e+00   4.7485673e+01
 5.5912000e+00   4.7276967e+01
 5.5966667e+00   4.7406057e+01
 5.6021333e+00   4.7221401e+01
 5.6076000e+00   4.7548911e+01
 5.6130667e+00   4.7290125e+01
 5.6185333e+00   4.7512523e+01
 5.6240000e+00   4.7430693e+01
 5.6294667e+00   4.7655855e+01
 5.6349333e+00   4.7543036e+01
 5.6404000e+00   4.7755572e+01
 5.6458667e+00   4.7897810e+01
 5.6513333e+00   4.8217995e+01
 5.6568000e+00   4.8660878e+01
 5.6622667e+00   4.9037325e+01
 5.6677333e+00   5.1010057e+01
 5.6732000e+00   5.1051072e+01
 5.6786667e+00   6.3194691e+01
 5.6841333e+00   6.9036786e+01
 5.6896000e+00   6.8791842e+01
 5.6950667e+00   7.9846651e+01
 5.7005333e+00   1.1799806e+02
 5.7060000e+00   1.0640957e+02
 5.7114667e+00   1.4037330e+02
 5.7169333e+00   1.4221481e+02
 5.7224000e+00   1.5709726e+02
 5.7278667e+00   1.4464645e+02
 5.7333333e+00   1.8640815e+02
 5.7388000e+00   1.5412736e+02
 5.7442667e+00   1.8990246e+02
 5.7497333e+00   1.7127763e+02
 5.7552000e+00   1.5938839e+02
 5.7606667e+00   1.7500142e+02
 5.7661333e+00   1.6220488e+02
 5.7716000e+00   1.2993097e+02
 5.7770667e+00   1.4064475e+02
 5.7825333e+00   8.8947785e+01
 5.7880000e+00   9.6921385e+01
 5.7934667e+00   6.9087118e+01
 5.7989333e+00   6.3288100e+01
 5.8044000e+00   5.4125124e+01
 5.8098667e+00   5.1896382e+01
 5.8153333e+00   4.8670297e+01
 5.8208000e+00   4.8504396e+01
 5.8262667e+00   4.6945972e+01
 5.8317333e+00   4.7142576e+01
 5.8372000e+00   4.6235605e+01
 5.8426667e+00   4.6508609e+01
 5.8481333e+00   4.5559673e+01
 5.8536000e+00   4.5979755e+01
 5.8590667e+00   4.5243741e+01
 5.8645333e+00   4.5641247e+01
 5.8700000e+00   4.4744405e+01
 5.8754667e+00   4.5086585e+01
 5.8809333e+00   4.4424996e+01
 5.8864000e+00   4.4723587e+01
 5.8918667e+00   4.3891315e+01
 5.8973333e+00   4.4305011e+01
 5.9028000e+00   4.4109081e+01
 5.9082667e+00   4.3925879e+01
 5.9137333e+00   4.3494157e+01
 5.9192000e+00   4.3455660e+01
 5.9246667e+00   4.3019972e+01
 5.9301333e+00   4.2999710e+01
 5.9356000e+00   4.2808635e+01
 5.9410667e+00   4.2858827e+01
 5.9465333e+00   4.2708093e+01
 5.9520000e+00   4.2492742e+01
 5.9574667e+00   4.2696054e+01
 5.9629333e+00   4.2354365e+01
 5.9684000e+00   4.2355601e+01
 5.9738667e+00   4.2213692e+01
 5.9793333e+00   4.2310667e+01
 5.9848000e+00   4.2142187e+01
 5.9902667e+00   4.2301510e+01
 5.9957333e+00   4.2275199e+01
 6.0012000e+00   4.2340447e+01
 6.0066667e+00   4.2435522e+01
 6.0121333e+00   4.2510892e+01
 6.0176000e+00   4.2277408e+01
 6.0230667e+00   4.2508317e+01
 6.0285333e+00   4.2341780e+01
 6.0340000e+00   4.2088548e+01
 6.0394667e+00   4.2370267e+01
 6.0449333e+00   4.1825101e+01
 6.0504000e+00   4.2109437e+01
 6.0558667e+00   4.1956858e+01
 6.0613333e+00   4.1908602e+01
 6.0668000e+00   4.1957885e+01
 6.0722667e+00   4.1951924e+01
 6.0777333e+00   4.1729761e+01
 6.0832000e+00   4.1664922e+01
 6.0886667e+00   4.1636633e+01
 6.0941333e+00   4.1713532e+01
 6.0996000e+00   4.1554281e+01
 6.1050667e+00   4.1536784e+01
 6.1105333e+00   4.1694448e+01
 6.1160000e+00   4.1545032e+01
 6.1214667e+00   4.1575083e+01
 6.1269333e+00   4.1570756e+01
 6.1324000e+00   4.1574119e+01
 6.1378667e+00   4.1381527e+01
 6.1433333e+00   4.1357684e+01
 6.1488000e+00   4.1109905e+01
 6.1542667e+00   4.1126417e+01
 6.1597333e+00   4.0974062e+01
 6.1652000e+00   4.1012651e+01
 6.1706667e+00   4.0798821e+01
 6.1761333e+00   4.0994878e+01
 6.1816000e+00   4.0887698e+01
 6.1870667e+00   4.0938286e+01
 6.1925333e+00   4.0985392e+01
 6.1980000e+00   4.0850976e+01
 6.2034667e+00   4.1088408e+01
 6.2089333e+00   4.0879914e+01
 6.2144000e+00   4.0988488e+01
 6.2198667e+00   4.0886047e+01
 6.2253333e+00   4.1191662e+01
 6.2308000e+00   4.0749449e+01
 6.2362667e+00   4.1046408e+01
 6.2417333e+00   4.0702238e+01
 6.2472000e+00   4.1222329e+01
 6.2526667e+00   4.0735996e+01
 6.2581333e+00   4.0881896e+01
 6.2636000e+00   4.1085845e+01
 6.2690667e+00   4.0929067e+01
 6.2745333e+00   4.0922479e+01
 6.2800000e+00   4.0935547e+01
 6.2854667e+00   4.0856916e+01
 6.2909333e+00   4.0836808e+01
 6.2964000e+00   4.0981154e+01
 6.3018667e+00   4.0917894e+01
 6.3073333e+00   4.1154568e+01
 6.3128000e+00   4.1118478e+01
 6.3182667e+00   4.1320641e+01
 6.3237333e+00   4.1212318e+01
 6.3292000e+00   4.1467029e+01
 6.3346667e+00   4.1483449e+01
 6.3401333e+00   4.1945362e+01
 6.3456000e+00   4.2302478e+01
 6.3510667e+00   4.3778555e+01
 6.3565333e+00   4.4695732e+01
 6.3620000e+00   4.9811447e+01
 6.3674667e+00   5.1831619e+01
 6.3729333e+00   6.0392861e+01
 6.3784000e+00   5.1405417e+01
 6.3838667e+00   6.8088839e+01
 6.3893333e+00   5.4031498e+01
 6.3948000e+00   5.8760114e+01
 6.4002667e+00   5.2484661e+01
 6.4057333e+00   5.4004264e+01
 6.4112000e+00   5.2272142e+01
 6.4166667e+00   6.2852641e+01
 6.4221333e+00   5.1120299e+01
 6.4276000e+00   4.9542968e+01
 6.4330667e+00   4.5969116e+01
 6.4385333e+00   4.2660490e+01
 6.4440000e+00   4.2205313e+01
 6.4494667e+00   4.1419115e+01
 6.4549333e+00   4.1269824e+01
 6.4604000e+00   4.0766895e+01
 6.4658667e+00   4.1035198e+01
 6.4713333e+00   4.0672945e+01
 6.4768000e+00   4.0767947e+01
 6.4822667e+00   4.0696917e+01
 6.4877333e+00   4.0603436e+01
 6.4932000e+00   4.0434312e+01
 6.4986667e+00   4.0602607e+01
 6.5041333e+00   4.0480747e+01
 6.5096000e+00   4.0238746e+01
 6.5150667e+00   4.0573452e+01
 6.5205333e+00   4.0063328e+01
 6.5260000e+00   4.0311699e+01
 6.5314667e+00   3.9852574e+01
 6.5369333e+00   4.0413087e+01
 6.5424000e+00   3.9663269e+01
 6.5478667e+00   4.0038837e+01
 6.5533333e+00   3.9718284e+01
 6.5588000e+00   3.9771770e+01
 6.5642667e+00   3.9796104e+01
 6.5697333e+00   3.9813224e+01
 6.5752000e+00   3.9657810e+01
 6.5806667e+00   3.9956908e+01
 6.5861333e+00   3.9759968e+01
 6.5916000e+00   3.9696982e+01
 6.5970667e+00   3.9988604e+01
 6.6025333e+00   3.9856671e+01
 6.6080000e+00   3.9983279e+01
 6.6134667e+00   3.9692892e+01
 6.6189333e+00   4.0071155e+01
 6.6244000e+00   3.9546005e+01
 6.6298667e+00   4.0046954e+01
 6.6353333e+00   3.9765922e+01
 6.6408000e+00   3.9875169e+01
 6.6462667e+00   3.9804618e+01
 6.6517333e+00   4.0051406e+01
 6.6572000e+00   3.9627625e+01
 6.6626667e+00   4.0145966e+01
 6.6681333e+00   3.9814208e+01
 6.6736000e+00   3.9961601e+01
 6.6790667e+00   3.9794901e+01
 6.6845333e+00   3.9938258e+01
 6.6900000e+00   3.9847921e+01
 6.6954667e+00   3.9746897e+01
 6.7009333e+00   3.9941212e+01
 6.7064000e+00   3.9813675e+01
 6.7118667e+00   4.0079070e+01
 6.7173333e+00   3.9829696e+01
 6.7228000e+00   4.0367727e+01
 6.7282667e+00   3.9764401e+01
 6.7337333e+00   4.0367656e+01
 6.7392000e+00   3.9873456e+01
 6.7446667e+00   4.0283117e+01
 6.7501333e+00   3.9885726e+01
 6.7556000e+00   4.0314667e+01
 6.7610667e+00   3.9974595e+01
 6.7665333e+00   4.0372214e+01
 6.7720000e+00   3.9943077e+01
 6.7774667e+00   4.0577826e+01
 6.7829333e+00   3.9873949e+01
 6.7884000e+00   4.0561865e+01
 6.7938667e+00   4.0007000e+01
 6.7993333e+00   4.0366938e+01
 6.8048000e+00   4.0207319e+01
 6.8102667e+00   4.0117187e+01
 6.8157333e+00   4.0335048e+01
 6.8212000e+00   4.0168920e+01
 6.8266667e+00   4.0489512e+01
 6.8321333e+00   4.0227527e+01
 6.8376000e+00   4.0562090e+01
 6.8430667e+00   4.0308608e+01
 6.8485333e+00   4.0615026e+01
 6.8540000e+00   4.0530629e+01
 6.8594667e+00   4.0916821e+01
 6.8649333e+00   4.0678951e+01
 6.8704000e+00   4.0965044e+01
 6.8758667e+00   4.0528077e+01
 6.8813333e+00   4.1116663e+01
 6.8868000e+00   4.0609301e+01
 6.8922667e+00   4.0932039e+01
 6.8977333e+00   4.0681728e+01
 6.9032000e+00   4.1132846e+01
 6.9086667e+00   4.0763691e+01
 6.9141333e+00   4.0984578e+01
 6.9196000e+00   4.0999356e+01
 6.9250667e+00   4.0969775e+01
 6.9305333e+00   4.0915600e+01
 6.9360000e+00   4.1127052e+01
 6.9414667e+00   4.1225887e+01
 6.9469333e+00   4.1146721e+01
 6.9524000e+00   4.1445146e+01
 6.9578667e+00   4.1432029e+01
 6.9633333e+00   4.1644687e+01
 6.9688000e+00   4.1401410e+01
 6.9742667e+00   4.1837012e+01
 6.9797333e+00   4.1530219e+01
 6.9852000e+00   4.1754049e+01
 6.9906667e+00   4.1624199e+01
 6.9961333e+00   4.1897668e+01
 7.0016000e+00   4.1739395e+01
 7.0070667e+00   4.2050093e+01
 7.0125333e+00   4.1945381e+01
 7.0180000e+00   4.2204603e+01
 7.0234667e+00   4.2214213e+01
 7.0289333e+00   4.2098568e+01
 7.0344000e+00   4.2136983e+01
 7.0398667e+00   4.2254161e+01
 7.0453333e+00   4.2216195e+01
 7.0508000e+00   4.2316384e+01
 7.0562667e+00   4.2355384e+01
 7.0617333e+00   4.2619826e+01
 7.0672000e+00   4.2573928e+01
 7.0726667e+00   4.2581958e+01
 7.0781333e+00   4.2878623e+01
 7.0836000e+00   4.2902012e+01
 7.0890667e+00   4.3055534e+01
 7.0945333e+00   4.3225931e+01
 7.1000000e+00   4.3423585e+01
 7.1054667e+00   4.3377744e+01
 7.1109333e+00   4.3823593e+01
 7.1164000e+00   4.3671739e+01
 7.1218667e+00   4.3749457e+01
 7.1273333e+00   4.3910171e+01
 7.1328000e+00   4.3763071e+01
 7.1382667e+00   4.3854132e+01
 7.1437333e+00   4.3816044e+01
 7.1492000e+00   4.3790159e+01
 7.1546667e+00   4.3689819e+01
 7.1601333e+00   4.3897133e+01
 7.1656000e+00   4.3784904e+01
 7.1710667e+00   4.3952680e+01
 7.1765333e+00   4.3924772e+01
 7.1820000e+00   4.4215753e+01
 7.1874667e+00   4.4245225e+01
 7.1929333e+00   4.5397407e+01
 7.1984000e+00   4.4402112e+01
 7.2038667e+00   4.4841095e+01
 7.2093333e+00   4.4441136e+01
 7.2148000e+00   4.4324289e+01
 7.2202667e+00   4.4300591e+01
 7.2257333e+00   4.4268778e+01
 7.2312000e+00   4.4297997e+01
 7.2366667e+00   4.4519007e+01
 7.2421333e+00   4.4480692e+01
 7.2476000e+00   4.4685852e+01
 7.2530667e+00   4.4688692e+01
 7.2585333e+00   4.4735953e+01
 7.2640000e+00   4.4922069e+01
 7.2694667e+00   4.4842915e+01
 7.2749333e+00   4.4899834e+01
 7.2804000e+00   4.5091238e+01
 7.2858667e+00   4.5198588e+01
 7.2913333e+00   4.5039979e+01
 7.2968000e+00   4.5285300e+01
 7.3022667e+00   4.5239944e+01
 7.3077333e+00   4.5302348e+01
 7.3132000e+00   4.5498705e+01
 7.3186667e+00   4.5390685e+01
 7.3241333e+00   4.5668166e+01
 7.3296000e+00   4.5659852e+01
 7.3350667e+00   4.5724576e+01
 7.3405333e+00   4.5817953e+01
 7.3460000e+00   4.6048683e+01
 7.3514667e+00   4.6049539e+01
 7.3569333e+00   4.6325442e+01
 7.3624000e+00   4.6100121e+01
 7.3678667e+00   4.6383661e+01
 7.3733333e+00   4.6303301e+01
 7.3788000e+00   4.6482888e+01
 7.3842667e+00   4.6464678e+01
 7.3897333e+00   4.6687050e+01
 7.3952000e+00   4.6548486e+01
 7.4006667e+00   4.6996145e+01
 7.4061333e+00   4.6919923e+01
 7.4116000e+00   4.6839192e+01
 7.4170667e+00   4.7367637e+01
 7.4225333e+00   4.6932927e+01
 7.4280000e+00   4.7339895e+01
 7.4334667e+00   4.7297507e+01
 7.4389333e+00   4.7527448e+01
 7.4444000e+00   4.7384401e+01
 7.4498667e+00   4.7876472e+01
 7.4553333e+00   4.7729545e+01
 7.4608000e+00   4.8213973e+01
 7.4662667e+00   4.7999051e+01
 7.4717333e+00   4.8210347e+01
 7.4772000e+00   4.8028417e+01
 7.4826667e+00   4.8300029e+01
 7.4881333e+00   4.8306450e+01
 7.4936000e+00   4.8552783e+01
 7.4990667e+00   4.8442008e+01
 7.5045333e+00   4.8641723e+01
 7.5100000e+00   4.8927275e+01
 7.5154667e+00   4.8795216e+01
 7.5209333e+00   4.9040627e+01
 7.5264000e+00   4.9079614e+01
 7.5318667e+00   4.9334426e+01
 7.5373333e+00   4.9300481e+01
 7.5428000e+00   4.9909033e+01
 7.5482667e+00   4.9389664e+01
 7.5537333e+00   5.0219749e+01
 7.5592000e+00   4.9772203e+01
 7.5646667e+00   5.0361543e+01
 7.5701333e+00   5.0353866e+01
 7.5756000e+00   5.0729639e+01
 7.5810667e+00   5.0589732e+01
 7.5865333e+00   5.1105897e+01
 7.5920000e+00   5.1162874e+01
 7.5974667e+00   5.1520380e+01
 7.6029333e+00   5.1234980e+01
 7.6084000e+00   5.2006237e+01
 7.6138667e+00   5.1738214e+01
 7.6193333e+00   5.2331174e+01
 7.6248000e+00   5.2280991e+01
 7.6302667e+00   5.2497793e+01
 7.6357333e+00   5.3111383e+01
 7.6412000e+00   5.2936173e+01
 7.6466667e+00   5.3519702e+01
 7.6521333e+00   5.4059086e+01
 7.6576000e+00   5.3960580e+01
 7.6630667e+00   5.4218610e+01
 7.6685333e+00   5.4911093e+01
 7.6740000e+00   5.4754856e+01
 7.6794667e+00   5.5439449e+01
 7.6849333e+00   5.5364956e+01
 7.6904000e+00   5.6790184e+01
 7.6958667e+00   5.6250075e+01
 7.7013333e+00   5.7068024e+01
 7.7068000e+00   5.7573012e+01
 7.7122667e+00   5.7643866e+01
 7.7177333e+00   5.8993988e+01
 7.7232000e+00   5.9266186e+01
 7.7286667e+00   5.9582573e+01
 7.7341333e+00   6.1627741e+01
 7.7396000e+00   6.1426677e+01
 7.7450667e+00   6.4473995e+01
 7.7505333e+00   6.7362051e+01
 7.7560000e+00   6.8466945e+01
 7.7614667e+00   7.5052904e+01
 7.7669333e+00   8.1340613e+01
 7.7724000e+00   8.3223922e+01
 7.7778667e+00   8.6279949e+01
 7.7833333e+00   9.1950314e+01
 7.7888000e+00   9.7105666e+01
 7.7942667e+00   9.6483221e+01
 7.7997333e+00   1.0455398e+02
 7.8052000e+00   1.1427693e+02
 7.8106667e+00   1.1166073e+02
 7.8161333e+00   1.2341613e+02
 7.8216000e+00   1.3228820e+02
 7.8270667e+00   1.1492535e+02
 7.8325333e+00   1.4082763e+02
 7.8380000e+00   1.1603472e+02
 7.8434667e+00   1.3432723e+02
 7.8489333e+00   1.0903454e+02
 7.8544000e+00   1.2371013e+02
 7.8598667e+00   9.2079943e+01
 7.8653333e+00   9.1142969e+01
 7.8708000e+00   7.6625572e+01
 7.8762667e+00   7.0952826e+01
 7.8817333e+00   6.6274841e+01
 7.8872000e+00   6.5630348e+01
 7.8926667e+00   6.2912048e+01
 7.8981333e+00   6.2901697e+01
 7.9036000e+00   6.1919440e+01
 7.9090667e+00   6.1125094e+01
 7.9145333e+00   6.1451964e+01
 7.9200000e+00   6.1156023e+01
 7.9254667e+00   5.9802605e+01
 7.9309333e+00   6.0501151e+01
 7.9364000e+00   5.9502609e+01
 7.9418667e+00   5.9271102e+01
 7.9473333e+00   5.9525340e+01
 7.9528000e+00   5.8364382e+01
 7.9582667e+00   5.8539647e+01
 7.9637333e+00   5.8340088e+01
 7.9692000e+00   5.7823116e+01
 7.9746667e+00   5.7631139e+01
 7.9801333e+00   5.7356269e+01
 7.9856000e+00   5.7384836e+01
 7.9910667e+00   5.7044735e+01
 7.9965333e+00   5.7051011e+01
 8.0020000e+00   5.7038624e+01
 8.0074667e+00   5.6567968e+01
 8.0129333e+00   5.7163980e+01
 8.0184000e+00   5.7144810e+01
 8.0238667e+00   5.6600398e+01
 8.0293333e+00   5.7332318e+01
 8.0348000e+00   5.6815892e+01
 8.0402667e+00   5.7248888e+01
 8.0457333e+00   5.7949938e+01
 8.0512000e+00   5.7696021e+01
 8.0566667e+00   6.1442879e+01
 8.0621333e+00   6.1011110e+01
 8.0676000e+00   7.5747726e+01
 8.0730667e+00   6.8953786e+01
 8.0785333e+00   8.4937735e+01
 8.0840000e+00   7.2653153e+01
 8.0894667e+00   9.2311319e+01
 8.0949333e+00   7.8954205e+01
 8.1004000e+00   1.1719784e+02
 8.1058667e+00   1.0853977e+02
 8.1113333e+00   1.4417030e+02
 8.1168000e+00   1.3228871e+02
 8.1222667e+00   1.3237667e+02
 8.1277333e+00   1.2208116e+02
 8.1332000e+00   1.3039050e+02
 8.1386667e+00   1.0945970e+02
 8.1441333e+00   1.1566944e+02
 8.1496000e+00   1.0020053e+02
 8.1550667e+00   1.0356673e+02
 8.1605333e+00   9.4248480e+01
 8.1660000e+00   8.8015404e+01
 8.1714667e+00   9.6148011e+01
 8.1769333e+00   8.6105683e+01
 8.1824000e+00   8.2390859e+01
 8.1878667e+00   7.4362766e+01
 8.1933333e+00   6.6719016e+01
 8.1988000e+00   5.9847016e+01
 8.2042667e+00   5.7678378e+01
 8.2097333e+00   5.6805746e+01
 8.2152000e+00   5.5816922e+01
 8.2206667e+00   5.5553473e+01
 8.2261333e+00   5.5510800e+01
 8.2316000e+00   5.4914094e+01
 8.2370667e+00   5.5023445e+01
 8.2425333e+00   5.4470605e+01
 8.2480000e+00   5.4437816e+01
 8.2534667e+00   5.3932967e+01
 8.2589333e+00   5.4332313e+01
 8.2644000e+00   5.3705439e+01
 8.2698667e+00   5.3995179e+01
 8.2753333e+00   5.3203315e+01
 8.2808000e+00   5.3751031e+01
 8.2862667e+00   5.3018469e+01
 8.2917333e+00   5.3307377e+01
 8.2972000e+00   5.2900259e+01
 8.3026667e+00   5.3141823e+01
 8.3081333e+00   5.2703930e+01
 8.3136000e+00   5.2840896e+01
 8.3190667e+00   5.2597384e+01
 8.3245333e+00   5.2626190e+01
 8.3300000e+00   5.2455342e+01
 8.3354667e+00   5.2478327e+01
 8.3409333e+00   5.2352499e+01
 8.3464000e+00   5.2269524e+01
 8.3518667e+00   5.2370430e+01
 8.3573333e+00   5.2116997e+01
 8.3628000e+00   5.2445840e+01
 8.3682667e+00   5.2003988e+01
 8.3737333e+00   5.2342657e+01
 8.3792000e+00   5.2112807e+01
 8.3846667e+00   5.2341073e+01
 8.3901333e+00   5.1890924e+01
 8.3956000e+00   5.2227548e+01
 8.4010667e+00   5.1793688e+01
 8.4065333e+00   5.2069172e+01
 8.4120000e+00   5.1693139e+01
 8.4174667e+00   5.2006363e+01
 8.4229333e+00   5.1433752e+01
 8.4284000e+00   5.1868984e+01
 8.4338667e+00   5.1376075e+01
 8.4393333e+00   5.1622702e+01
 8.4448000e+00   5.1351937e+01
 8.4502667e+00   5.1368190e+01
 8.4557333e+00   5.1549469e+01
 8.4612000e+00   5.1455000e+01
 8.4666667e+00   5.1653943e+01
 8.4721333e+00   5.1433218e+01
 8.4776000e+00   5.1854717e+01
 8.4830667e+00   5.1555565e+01
 8.4885333e+00   5.1951500e+01
 8.4940000e+00   5.1340541e+01
 8.4994667e+00   5.1847509e+01
 8.5049333e+00   5.1354825e+01
 8.5104000e+00   5.1495351e+01
 8.5158667e+00   5.1256580e+01
 8.5213333e+00   5.1602793e+01
 8.5268000e+00   5.1173077e+01
 8.5322667e+00   5.1347830e+01
 8.5377333e+00   5.1298743e+01
 8.5432000e+00   5.0980906e+01
 8.5486667e+00   5.0717091e+01
 8.5541333e+00   5.0817533e+01
 8.5596000e+00   5.0663945e+01
 8.5650667e+00   5.0698143e+01
 8.5705333e+00   5.0581258e+01
 8.5760000e+00   5.0542966e+01
 8.5814667e+00   5.0515288e+01
 8.5869333e+00   5.0543511e+01
 8.5924000e+00   5.0559852e+01
 8.5978667e+00   5.0492608e+01
 8.6033333e+00   5.0560436e+01
 8.6088000e+00   5.0588635e+01
 8.6142667e+00   5.0500181e+01
 8.6197333e+00   5.0346742e+01
 8.6252000e+00   5.0617186e+01
 8.6306667e+00   5.0114791e+01
 8.6361333e+00   5.0208181e+01
 8.6416000e+00   4.9986387e+01
 8.6470667e+00   5.0129740e+01
 8.6525333e+00   4.9843654e+01
 8.6580000e+00   4.9779166e+01
 8.6634667e+00   4.9707094e+01
 8.6689333e+00   4.9727964e+01
 8.6744000e+00   4.9692551e+01
 8.6798667e+00   4.9657366e+01
 8.6853333e+00   4.9605496e+01
 8.6908000e+00   4.9314459e+01
 8.6962667e+00   4.9601015e+01
 8.7017333e+00   4.9216320e+01
 8.7072000e+00   4.9456003e+01
 8.7126667e+00   4.9108277e+01
 8.7181333e+00   4.9478099e+01
 8.7236000e+00   4.8956674e+01
 8.7290667e+00   4.9332472e+01
 8.7345333e+00   4.9044110e+01
 8.7400000e+00   4.9378790e+01
 8.7454667e+00   4.8710346e+01
 8.7509333e+00   4.9374622e+01
 8.7564000e+00   4.8772607e+01
 8.7618667e+00   4.9279557e+01
 8.7673333e+00   4.8727802e+01
 8.7728000e+00   4.9116089e+01
 8.7782667e+00   4.8804707e+01
 8.7837333e+00   4.8907794e+01
 8.7892000e+00   4.8790271e+01
 8.7946667e+00   4.8867214e+01
 8.8001333e+00   4.8745401e+01
 8.8056000e+00   4.8745354e+01
 8.8110667e+00   4.8668867e+01
 8.8165333e+00   4.8567602e+01
 8.8220000e+00   4.8649014e+01
 8.8274667e+00   4.8502771e+01
 8.8329333e+00   4.8774746e+01
 8.8384000e+00   4.8534813e+01
 8.8438667e+00   4.8613727e+01
 8.8493333e+00   4.8478008e+01
 8.8548000e+00   4.8708934e+01
 8.8602667e+00   4.8464476e+01
 8.8657333e+00   4.8842120e+01
 8.8712000e+00   4.8216713e+01
 8.8766667e+00   4.8980924e+01
 8.8821333e+00   4.8269181e+01
 8.8876000e+00   4.8759377e+01
 8.8930667e+00   4.8222376e+01
 8.8985333e+00   4.8642614e+01
 8.9040000e+00   4.8184475e+01
 8.9094667e+00   4.8420617e+01
 8.9149333e+00   4.8230283e+01
 8.9204000e+00   4.8261659e+01
 8.9258667e+00   4.8301133e+01
 8.9313333e+00   4.8168836e+01
 8.9368000e+00   4.8241651e+01
 8.9422667e+00   4.8161999e+01
 8.9477333e+00   4.8209844e+01
 8.9532000e+00   4.8051802e+01
 8.9586667e+00   4.8148505e+01
 8.9641333e+00   4.8002238e+01
 8.9696000e+00   4.8161588e+01
 8.9750667e+00   4.8064678e+01
 8.9805333e+00   4.8258118e+01
 8.9860000e+00   4.8249259e+01
 8.9914667e+00   4.8667756e+01
 8.9969333e+00   4.8438390e+01
 9.0024000e+00   4.9220495e+01
 9.0078667e+00   4.9029856e+01
 9.0133333e+00   5.1403627e+01
 9.0188000e+00   5.0589443e+01
 9.0242667e+00   6.0563816e+01
 9.0297333e+00   5.5611251e+01
 9.0352000e+00   5.7371842e+01
 9.0406667e+00   5.7533421e+01
 9.0461333e+00   5.8612985e+01
 9.0516000e+00   5.3591749e+01
 9.0570667e+00   5.0573324e+01
 9.0625333e+00   5.1313418e+01
 9.0680000e+00   4.9487183e+01
 9.0734667e+00   4.9503447e+01
 9.0789333e+00   4.8715163e+01
 9.0844000e+00   4.9189915e+01
 9.0898667e+00   4.7855308e+01
 9.0953333e+00   4.7749870e+01
 9.1008000e+00   4.6959288e+01
 9.1062667e+00   4.7058937e+01
 9.1117333e+00   4.6555753e+01
 9.1172000e+00   4.6788763e+01
 9.1226667e+00   4.6255222e+01
 9.1281333e+00   4.6529365e+01
 9.1336000e+00   4.6204661e+01
 9.1390667e+00   4.6167051e+01
 9.1445333e+00   4.6294617e+01
 9.1500000e+00   4.5915219e+01
 9.1554667e+00   4.5814683e+01
 9.1609333e+00   4.6104180e+01
 9.1664000e+00   4.5625383e+01
 9.1718667e+00   4.5813087e+01
 9.1773333e+00   4.5519071e+01
 9.1828000e+00   4.5701122e+01
 9.1882667e+00   4.5654191e+01
 9.1937333e+00   4.5479465e+01
 9.1992000e+00   4.5521406e+01
 9.2046667e+00   4.5290664e+01
 9.2101333e+00   4.5282225e+01
 9.2156000e+00   4.5118524e+01
 9.2210667e+00   4.5185058e+01
 9.2265333e+00   4.4985898e+01
 9.2320000e+00   4.4969511e+01
 9.2374667e+00   4.4937965e+01
 9.2429333e+00   4.4929994e+01
 9.2484000e+00   4.4719698e+01
 9.2538667e+00   4.4875669e+01
 9.2593333e+00   4.4483287e+01
 9.2648000e+00   4.4808236e+01
 9.2702667e+00   4.4731498e+01
 9.2757333e+00   4.4622756e+01
 9.2812000e+00   4.4679018e+01
 9.2866667e+00   4.4676782e+01
 9.2921333e+00   4.4310703e+01
 9.2976000e+00   4.4569502e+01
 9.3030667e+00   4.4382133e+01
 9.3085333e+00   4.4470289e+01
 9.3140000e+00   4.4395620e+01
 9.3194667e+00   4.4433561e+01
 9.3249333e+00   4.4306915e+01
 9.3304000e+00   4.4412424e+01
 9.3358667e+00   4.4233868e+01
 9.3413333e+00   4.4181930e+01
 9.3468000e+00   4.4269240e+01
 9.3522667e+00   4.4070001e+01
 9.3577333e+00   4.4065105e+01
 9.3632000e+00   4.4060253e+01
 9.3686667e+00   4.4250397e+01
 9.3741333e+00   4.4044566e+01
 9.3796000e+00   4.4236830e+01
 9.3850667e+00   4.4233131e+01
 9.3905333e+00   4.4078937e+01
 9.3960000e+00   4.4182850e+01
 9.4014667e+00   4.4193394e+01
 9.4069333e+00   4.3835197e+01
 9.4124000e+00   4.4367504e+01
 9.4178667e+00   4.3736263e+01
 9.4233333e+00   4.4407898e+01
 9.4288000e+00   4.4432382e+01
 9.4342667e+00   4.4162148e+01
 9.4397333e+00   4.4870369e+01
 9.4452000e+00   4.4812860e+01
 9.4506667e+00   4.5061380e+01
 9.4561333e+00   4.5246374e+01
 9.4616000e+00   4.6636645e+01
 9.4670667e+00   4.6331269e+01
 9.4725333e+00   5.6839902e+01
 9.4780000e+00   5.2645738e+01
 9.4834667e+00   5.9553277e+01
 9.4889333e+00   7.3139030e+01
 9.4944000e+00   6.5518701e+01
 9.4998667e+00   9.5280414e+01
 9.5053333e+00   8.7540946e+01
 9.5108000e+00   9.5335582e+01
 9.5162667e+00   8.5709502e+01
 9.5217333e+00   7.9596785e+01
 9.5272000e+00   8.3955701e+01
 9.5326667e+00   7.7989082e+01
 9.5381333e+00   8.2798878e+01
 9.5436000e+00   8.0893152e+01
 9.5490667e+00   9.1178668e+01
 9.5545333e+00   1.0715998e+02
 9.5600000e+00   1.1209271e+02
 9.5654667e+00   1.0218605e+02
 9.5709333e+00   1.0397974e+02
 9.5764000e+00   9.4880431e+01
 9.5818667e+00   8.6029514e+01
 9.5873333e+00   6.3936138e+01
 9.5928000e+00   5.5552394e+01
 9.5982667e+00   5.0284611e+01
 9.6037333e+00   4.6352832e+01
 9.6092000e+00   4.4990232e+01
 9.6146667e+00   4.4464659e+01
 9.6201333e+00   4.3339920e+01
 9.6256000e+00   4.3426588e+01
 9.6310667e+00   4.2963973e+01
 9.6365333e+00   4.2951771e+01
 9.6420000e+00   4.2579811e+01
 9.6474667e+00   4.2794878e+01
 9.6529333e+00   4.2527616e+01
 9.6584000e+00   4.2497904e+01
 9.6638667e+00   4.2335969e+01
 9.6693333e+00   4.2091113e+01
 9.6748000e+00   4.2251488e+01
 9.6802667e+00   4.1893917e+01
 9.6857333e+00   4.2052706e+01
 9.6912000e+00   4.1844703e+01
 9.6966667e+00   4.1755064e+01
 9.7021333e+00   4.1643719e+01
 9.7076000e+00   4.1766438e+01
 9.7130667e+00   4.1360240e+01
 9.7185333e+00   4.1622281e+01
 9.7240000e+00   4.1382173e+01
 9.7294667e+00   4.1237838e+01
 9.7349333e+00   4.1336810e+01
 9.7404000e+00   4.1120884e+01
 9.7458667e+00   4.1097470e+01
 9.7513333e+00   4.1220623e+01
 9.7568000e+00   4.0812775e+01
 9.7622667e+00   4.0867968e+01
 9.7677333e+00   4.0751385e+01
 9.7732000e+00   4.0754154e+01
 9.7786667e+00   4.0670101e+01
 9.7841333e+00   4.0632334e+01
 9.7896000e+00   4.0262896e+01
 9.7950667e+00   4.0625567e+01
 9.8005333e+00   4.0347928e+01
 9.8060000e+00   4.0463434e+01
 9.8114667e+00   4.0436289e+01
 9.8169333e+00   4.0674236e+01
 9.8224000e+00   4.0457293e+01
 9.8278667e+00   4.0572877e+01
 9.8333333e+00   4.0583281e+01
 9.8388000e+00   4.0573492e+01
 9.8442667e+00   4.0491776e+01
 9.8497333e+00   4.0598375e+01
 9.8552000e+00   4.0356234e+01
 9.8606667e+00   4.0629703e+01
 9.8661333e+00   4.0521236e+01
 9.8716000e+00   4.0543622e+01
 9.8770667e+00   4.1033145e+01
 9.8825333e+00   4.0885135e+01
 9.8880000e+00   4.1348788e+01
 9.8934667e+00   4.1359816e+01
 9.8989333e+00   4.1670569e+01
 9.9044000e+00   4.1975870e+01
 9.9098667e+00   4.3257756e+01
 9.9153333e+00   4.4684376e+01
 9.9208000e+00   4.8927211e+01
 9.9262667e+00   5.0650108e+01
 9.9317333e+00   5.3810834e+01
 9.9372000e+00   6.0577766e+01
 9.9426667e+00   7.1477170e+01
 9.9481333e+00   5.8640015e+01
 9.9536000e+00   8.1073902e+01
 9.9590667e+00   6.4972643e+01
 9.9645333e+00   7.0386297e+01
 9.9700000e+00   7.1203542e+01
 9.9754667e+00   6.3401346e+01
 9.9809333e+00   6.9479396e+01
 9.9864000e+00   7.3266761e+01
 9.9918667e+00   6.3696444e+01
 9.9973333e+00   6.6097537e+01
 1.0002800e+01   5.2809905e+01
 1.0008267e+01   4.5892236e+01
 1.0013733e+01   4.5829310e+01
 1.0019200e+01   4.4198481e+01
 1.0024667e+01   4.1920762e+01
 1.0030133e+01   4.1892557e+01
 1.0035600e+01   4.1589598e+01
 1.0041067e+01   4.1683425e+01
 1.0046533e+01   4.0968146e+01
 1.0052000e+01   4.2161631e+01
 1.0057467e+01   4.2608251e+01
 1.0062933e+01   4.1302970e+01
 1.0068400e+01   4.4832613e+01
 1.0073867e+01   5.0840558e+01
 1.0079333e+01   4.2804706e+01
 1.0084800e+01   5.9574029e+01
 1.0090267e+01   6.8807566e+01
 1.0095733e+01   5.3583850e+01
 1.0101200e+01   7.5092521e+01
 1.0106667e+01   7.8873691e+01
 1.0112133e+01   7.1167850e+01
 1.0117600e+01   7.8178619e+01
 1.0123067e+01   7.6058283e+01
 1.0128533e+01   5.9832396e+01
 1.0134000e+01   5.8484093e+01
 1.0139467e+01   4.9948635e+01
 1.0144933e+01   4.4818351e+01
 1.0150400e+01   4.3106111e+01
 1.0155867e+01   4.1821988e+01
 1.0161333e+01   4.0540760e+01
 1.0166800e+01   4.0548469e+01
 1.0172267e+01   3.9998550e+01
 1.0177733e+01   3.9490659e+01
 1.0183200e+01   3.9483788e+01
 1.0188667e+01   3.9301015e+01
 1.0194133e+01   3.9081781e+01
 1.0199600e+01   3.9002391e+01
 1.0205067e+01   3.8835624e+01
 1.0210533e+01   3.8879931e+01
 1.0216000e+01   3.8335927e+01
 1.0221467e+01   3.8681414e+01
 1.0226933e+01   3.8255512e+01
 1.0232400e+01   3.8277129e+01
 1.0237867e+01   3.8103191e+01
 1.0243333e+01   3.8179534e+01
 1.0248800e+01   3.7881959e+01
 1.0254267e+01   3.7995498e+01
 1.0259733e+01   3.7792460e+01
 1.0265200e+01   3.7945046e+01
 1.0270667e+01   3.7744205e+01
 1.0276133e+01   3.7670982e+01
 1.0281600e+01   3.7363145e+01
 1.0287067e+01   3.7483033e+01
 1.0292533e+01   3.7557489e+01
 1.0298000e+01   3.7212401e+01
 1.0303467e+01   3.7296391e+01
 1.0308933e+01   3.7210269e+01
 1.0314400e+01   3.7215925e+01
 1.0319867e+01   3.6913665e+01
 1.0325333e+01   3.7290695e+01
 1.0330800e+01   3.6828959e+01
 1.0336267e+01   3.7034366e+01
 1.0341733e+01   3.7022504e+01
 1.0347200e+01   3.6985814e+01
 1.0352667e+01   3.6901906e+01
 1.0358133e+01   3.6927261e+01
 1.0363600e+01   3.6776772e+01
 1.0369067e+01   3.6991687e+01
 1.0374533e+01   3.6776210e+01
 1.0380000e+01   3.6847884e+01
 1.0385467e+01   3.6761077e+01
 1.0390933e+01   3.6643916e+01
 1.0396400e+01   3.6767562e+01
 1.0401867e+01   3.6589401e+01
 1.0407333e+01   3.6677307e+01
 1.0412800e+01   3.6784785e+01
 1.0418267e+01   3.6547732e+01
 1.0423733e+01   3.6718078e+01
 1.0429200e+01   3.6631080e+01
 1.0434667e+01   3.6562891e+01
 1.0440133e+01   3.6901129e+01
 1.0445600e+01   3.6396462e+01
 1.0451067e+01   3.7612124e+01
 1.0456533e+01   3.6359885e+01
 1.0462000e+01   3.6715724e+01
 1.0467467e+01   3.6274094e+01
 1.0472933e+01   3.6508594e+01
 1.0478400e+01   3.6182791e+01
 1.0483867e+01   3.6475638e+01
 1.0489333e+01   3.6128617e+01
 1.0494800e+01   3.6271337e+01
 1.0500267e+01   3.6078251e+01
 1.0505733e+01   3.6254321e+01
 1.0511200e+01   3.6074651e+01
 1.0516667e+01   3.6341158e+01
 1.0522133e+01   3.6121776e+01
 1.0527600e+01   3.6366834e+01
 1.0533067e+01   3.6153218e+01
 1.0538533e+01   3.6313201e+01
 1.0544000e+01   3.6186426e+01
 1.0549467e+01   3.6155369e+01
 1.0554933e+01   3.6141615e+01
 1.0560400e+01   3.6206443e+01
 1.0565867e+01   3.6049504e+01
 1.0571333e+01   3.6233073e+01
 1.0576800e+01   3.6107340e+01
 1.0582267e+01   3.6077100e+01
 1.0587733e+01   3.6183543e+01
 1.0593200e+01   3.6031108e+01
 1.0598667e+01   3.6064663e+01
 1.0604133e+01   3.6102277e+01
 1.0609600e+01   3.6065438e+01
 1.0615067e+01   3.5956948e+01
 1.0620533e+01   3.5962240e+01
 1.0626000e+01   3.5960590e+01
 1.0631467e+01   3.5820645e+01
 1.0636933e+01   3.5868365e+01
 1.0642400e+01   3.5956319e+01
 1.0647867e+01   3.5890784e+01
 1.0653333e+01   3.5867861e+01
 1.0658800e+01   3.5982833e+01
 1.0664267e+01   3.5958478e+01
 1.0669733e+01   3.6073644e+01
 1.0675200e+01   3.6038383e+01
 1.0680667e+01   3.5846627e+01
 1.0686133e+01   3.6044284e+01
 1.0691600e+01   3.6027657e+01
 1.0697067e+01   3.5978510e+01
 1.0702533e+01   3.5983801e+01
 1.0708000e+01   3.6137444e+01
 1.0713467e+01   3.6128739e+01
 1.0718933e+01   3.6068691e+01
 1.0724400e+01   3.6159369e+01
 1.0729867e+01   3.5870961e+01
 1.0735333e+01   3.6025989e+01
 1.0740800e+01   3.5814954e+01
 1.0746267e+01   3.5958493e+01
 1.0751733e+01   3.5920804e+01
 1.0757200e+01   3.5781289e+01
 1.0762667e+01   3.5962630e+01
 1.0768133e+01   3.5776534e+01
 1.0773600e+01   3.5681425e+01
 1.0779067e+01   3.5606810e+01
 1.0784533e+01   3.5787314e+01
 1.0790000e+01   3.5596913e+01
 1.0795467e+01   3.5767767e+01
 1.0800933e+01   3.5590393e+01
 1.0806400e+01   3.5856322e+01
 1.0811867e+01   3.5594376e+01
 1.0817333e+01   3.5860544e+01
 1.0822800e+01   3.5544805e+01
 1.0828267e+01   3.5840483e+01
 1.0833733e+01   3.5613492e+01
 1.0839200e+01   3.5796103e+01
 1.0844667e+01   3.5705756e+01
 1.0850133e+01   3.5728186e+01
 1.0855600e+01   3.5735645e+01
 1.0861067e+01   3.5577011e+01
 1.0866533e+01   3.5711726e+01
 1.0872000e+01   3.5806480e+01
 1.0877467e+01   3.5543766e+01
 1.0882933e+01   3.5954801e+01
 1.0888400e+01   3.5445249e+01
 1.0893867e+01   3.5877150e+01
 1.0899333e+01   3.5632828e+01
 1.0904800e+01   3.5584884e+01
 1.0910267e+01   3.5568576e+01
 1.0915733e+01   3.5680304e+01
 1.0921200e+01   3.5429350e+01
 1.0926667e+01   3.5734929e+01
 1.0932133e+01   3.5623783e+01
 1.0937600e+01   3.5712323e+01
 1.0943067e+01   3.5557026e+01
 1.0948533e+01   3.5693803e+01
 1.0954000e+01   3.5707346e+01
 1.0959467e+01   3.5743046e+01
 1.0964933e+01   3.5839977e+01
 1.0970400e+01   3.5779667e+01
 1.0975867e+01   3.5799016e+01
 1.0981333e+01   3.6092600e+01
 1.0986800e+01   3.5751710e+01
 1.0992267e+01   3.6152104e+01
 1.0997733e+01   3.5758144e+01
 1.1003200e+01   3.6214341e+01
 1.1008667e+01   3.5808251e+01
 1.1014133e+01   3.6199215e+01
 1.1019600e+01   3.5981814e+01
 1.1025067e+01   3.6187219e+01
 1.1030533e+01   3.6043210e+01
 1.1036000e+01   3.6211401e+01
 1.1041467e+01   3.6090745e+01
 1.1046933e+01   3.6300541e+01
 1.1052400e+01   3.6131641e+01
 1.1057867e+01   3.6559923e+01
 1.1063333e+01   3.6392439e+01
 1.1068800e+01   3.6520564e+01
 1.1074267e+01   3.6556073e+01
 1.1079733e+01   3.6704198e+01
 1.1085200e+01   3.6511960e+01
 1.1090667e+01   3.6912009e+01
 1.1096133e+01   3.6801558e+01
 1.1101600e+01   3.6679848e+01
 1.1107067e+01   3.6855134e+01
 1.1112533e+01   3.6465297e+01
 1.1118000e+01   3.6534311e+01
 1.1123467e+01   3.6358495e+01
 1.1128933e+01   3.6303766e+01
 1.1134400e+01   3.6539046e+01
 1.1139867e+01   3.6002128e+01
 1.1145333e+01   3.6266898e+01
 1.1150800e+01   3.6248500e+01
 1.1156267e+01   3.6031234e+01
 1.1161733e+01   3.6102546e+01
 1.1167200e+01   3.6113582e+01
 1.1172667e+01   3.6076682e+01
 1.1178133e+01   3.5881485e+01
 1.1183600e+01   3.6203876e+01
 1.1189067e+01   3.6012508e+01
 1.1194533e+01   3.6078659e+01
