PWDR ff_004766_sum_norm_dc_0.tif Azm= 352.fxye Bank 1
2-Theta Angle (Degrees)
Intensity
       1500
 3.0000000e+00   4.4621552e+01
 3.0054667e+00   4.4266001e+01
 3.0109333e+00   4.4251882e+01
 3.0164000e+00   4.4151545e+01
 3.0218667e+00   4.4142060e+01
 3.0273333e+00   4.3677919e+01
 3.0328000e+00   4.3963362e+01
 3.0382667e+00   4.3477754e+01
 3.0437333e+00   4.3298976e+01
 3.0492000e+00   4.3515576e+01
 3.0546667e+00   4.3131414e+01
 3.0601333e+00   4.2961637e+01
 3.0656000e+00   4.2726221e+01
 3.0710667e+00   4.2416419e+01
 3.0765333e+00   4.2038571e+01
 3.0820000e+00   4.1765925e+01
 3.0874667e+00   4.1383572e+01
 3.0929333e+00   4.1183999e+01
 3.0984000e+00   4.0881860e+01
 3.1038667e+00   4.0829637e+01
 3.1093333e+00   4.0394150e+01
 3.1148000e+00   4.0205492e+01
 3.1202667e+00   4.0135550e+01
 3.1257333e+00   3.9969709e+01
 3.1312000e+00   3.9967904e+01
 3.1366667e+00   3.9800015e+01
 3.1421333e+00   3.9621605e+01
 3.1476000e+00   3.9403701e+01
 3.1530667e+00   3.9366598e+01
 3.1585333e+00   3.8960982e+01
 3.1640000e+00   3.8956382e+01
 3.1694667e+00   3.8711266e+01
 3.1749333e+00   3.8623993e+01
 3.1804000e+00   3.8492807e+01
 3.1858667e+00   3.8299356e+01
 3.1913333e+00   3.8227402e+01
 3.1968000e+00   3.7975248e+01
 3.2022667e+00   3.8082157e+01
 3.2077333e+00   3.7832472e+01
 3.2132000e+00   3.7794260e+01
 3.2186667e+00   3.7810347e+01
 3.2241333e+00   3.7721355e+01
 3.2296000e+00   3.7588711e+01
 3.2350667e+00   3.7581859e+01
 3.2405333e+00   3.7423088e+01
 3.2460000e+00   3.7320962e+01
 3.2514667e+00   3.7114115e+01
 3.2569333e+00   3.6945694e+01
 3.2624000e+00   3.6751089e+01
 3.2678667e+00   3.6605308e+01
 3.2733333e+00   3.6433070e+01
 3.2788000e+00   3.6194351e+01
 3.2842667e+00   3.6302661e+01
 3.2897333e+00   3.5973256e+01
 3.2952000e+00   3.5943824e+01
 3.3006667e+00   3.5716081e+01
 3.3061333e+00   3.5705822e+01
 3.3116000e+00   3.5565561e+01
 3.3170667e+00   3.5523050e+01
 3.3225333e+00   3.5358414e+01
 3.3280000e+00   3.5311078e+01
 3.3334667e+00   3.5045890e+01
 3.3389333e+00   3.5138880e+01
 3.3444000e+00   3.5063719e+01
 3.3498667e+00   3.4882061e+01
 3.3553333e+00   3.4837890e+01
 3.3608000e+00   3.4746052e+01
 3.3662667e+00   3.4734808e+01
 3.3717333e+00   3.4385297e+01
 3.3772000e+00   3.4586532e+01
 3.3826667e+00   3.4475010e+01
 3.3881333e+00   3.4343816e+01
 3.3936000e+00   3.4293523e+01
 3.3990667e+00   3.4214187e+01
 3.4045333e+00   3.4079076e+01
 3.4100000e+00   3.4233929e+01
 3.4154667e+00   3.3911520e+01
 3.4209333e+00   3.3939679e+01
 3.4264000e+00   3.3853295e+01
 3.4318667e+00   3.3724118e+01
 3.4373333e+00   3.3704738e+01
 3.4428000e+00   3.3666071e+01
 3.4482667e+00   3.3523711e+01
 3.4537333e+00   3.3538122e+01
 3.4592000e+00   3.3425202e+01
 3.4646667e+00   3.3344261e+01
 3.4701333e+00   3.3244499e+01
 3.4756000e+00   3.3175503e+01
 3.4810667e+00   3.3282012e+01
 3.4865333e+00   3.3137626e+01
 3.4920000e+00   3.3103304e+01
 3.4974667e+00   3.3083565e+01
 3.5029333e+00   3.2948633e+01
 3.5084000e+00   3.3111716e+01
 3.5138667e+00   3.2976422e+01
 3.5193333e+00   3.2976149e+01
 3.5248000e+00   3.2908662e+01
 3.5302667e+00   3.2906273e+01
 3.5357333e+00   3.2774217e+01
 3.5412000e+00   3.2789934e+01
 3.5466667e+00   3.2708604e+01
 3.5521333e+00   3.2741228e+01
 3.5576000e+00   3.2724890e+01
 3.5630667e+00   3.2885263e+01
 3.5685333e+00   3.2959894e+01
 3.5740000e+00   3.3189073e+01
 3.5794667e+00   3.3148231e+01
 3.5849333e+00   3.3046404e+01
 3.5904000e+00   3.2909217e+01
 3.5958667e+00   3.2803029e+01
 3.6013333e+00   3.2830483e+01
 3.6068000e+00   3.2606386e+01
 3.6122667e+00   3.2623286e+01
 3.6177333e+00   3.2327605e+01
 3.6232000e+00   3.2442254e+01
 3.6286667e+00   3.2173828e+01
 3.6341333e+00   3.2199194e+01
 3.6396000e+00   3.2091994e+01
 3.6450667e+00   3.2037333e+01
 3.6505333e+00   3.1995771e+01
 3.6560000e+00   3.2013566e+01
 3.6614667e+00   3.1945597e+01
 3.6669333e+00   3.1963087e+01
 3.6724000e+00   3.2047006e+01
 3.6778667e+00   3.1806058e+01
 3.6833333e+00   3.1904493e+01
 3.6888000e+00   3.1805129e+01
 3.6942667e+00   3.1803045e+01
 3.6997333e+00   3.1760837e+01
 3.7052000e+00   3.1808230e+01
 3.7106667e+00   3.1807013e+01
 3.7161333e+00   3.1844381e+01
 3.7216000e+00   3.1737508e+01
 3.7270667e+00   3.1722131e+01
 3.7325333e+00   3.1633734e+01
 3.7380000e+00   3.1669759e+01
 3.7434667e+00   3.1582529e+01
 3.7489333e+00   3.1679579e+01
 3.7544000e+00   3.1656201e+01
 3.7598667e+00   3.1602862e+01
 3.7653333e+00   3.1619410e+01
 3.7708000e+00   3.1535235e+01
 3.7762667e+00   3.1569831e+01
 3.7817333e+00   3.1543561e+01
 3.7872000e+00   3.1594498e+01
 3.7926667e+00   3.1500604e+01
 3.7981333e+00   3.1558564e+01
 3.8036000e+00   3.1584042e+01
 3.8090667e+00   3.1563670e+01
 3.8145333e+00   3.1539946e+01
 3.8200000e+00   3.1609849e+01
 3.8254667e+00   3.1567087e+01
 3.8309333e+00   3.1674928e+01
 3.8364000e+00   3.1604035e+01
 3.8418667e+00   3.1648393e+01
 3.8473333e+00   3.1676632e+01
 3.8528000e+00   3.1736953e+01
 3.8582667e+00   3.1848279e+01
 3.8637333e+00   3.1840211e+01
 3.8692000e+00   3.2324389e+01
 3.8746667e+00   3.2069492e+01
 3.8801333e+00   3.2009914e+01
 3.8856000e+00   3.1836125e+01
 3.8910667e+00   3.1900302e+01
 3.8965333e+00   3.1858897e+01
 3.9020000e+00   3.1971164e+01
 3.9074667e+00   3.1945861e+01
 3.9129333e+00   3.1987401e+01
 3.9184000e+00   3.2103427e+01
 3.9238667e+00   3.2212709e+01
 3.9293333e+00   3.2383802e+01
 3.9348000e+00   3.2460793e+01
 3.9402667e+00   3.2799515e+01
 3.9457333e+00   3.2968500e+01
 3.9512000e+00   3.3283230e+01
 3.9566667e+00   3.3158838e+01
 3.9621333e+00   3.3233801e+01
 3.9676000e+00   3.2936769e+01
 3.9730667e+00   3.2968160e+01
 3.9785333e+00   3.2854005e+01
 3.9840000e+00   3.2787895e+01
 3.9894667e+00   3.2691156e+01
 3.9949333e+00   3.2873017e+01
 4.0004000e+00   3.2635758e+01
 4.0058667e+00   3.2855719e+01
 4.0113333e+00   3.2686361e+01
 4.0168000e+00   3.2806538e+01
 4.0222667e+00   3.2701494e+01
 4.0277333e+00   3.2893879e+01
 4.0332000e+00   3.2932919e+01
 4.0386667e+00   3.2897755e+01
 4.0441333e+00   3.3086105e+01
 4.0496000e+00   3.3016381e+01
 4.0550667e+00   3.3228533e+01
 4.0605333e+00   3.3603725e+01
 4.0660000e+00   3.3536762e+01
 4.0714667e+00   3.3933458e+01
 4.0769333e+00   3.4364785e+01
 4.0824000e+00   3.4934604e+01
 4.0878667e+00   3.6329275e+01
 4.0933333e+00   3.8370852e+01
 4.0988000e+00   4.3829225e+01
 4.1042667e+00   5.0094362e+01
 4.1097333e+00   6.1526748e+01
 4.1152000e+00   8.1813952e+01
 4.1206667e+00   1.1397717e+02
 4.1261333e+00   1.5332568e+02
 4.1316000e+00   2.0642023e+02
 4.1370667e+00   2.2783578e+02
 4.1425333e+00   2.4192318e+02
 4.1480000e+00   2.3200530e+02
 4.1534667e+00   2.1696185e+02
 4.1589333e+00   2.0451256e+02
 4.1644000e+00   1.7582442e+02
 4.1698667e+00   1.9762085e+02
 4.1753333e+00   1.7969757e+02
 4.1808000e+00   1.3280056e+02
 4.1862667e+00   1.3246917e+02
 4.1917333e+00   9.8992656e+01
 4.1972000e+00   7.3015437e+01
 4.2026667e+00   5.4001867e+01
 4.2081333e+00   4.5506231e+01
 4.2136000e+00   3.9408781e+01
 4.2190667e+00   3.7470211e+01
 4.2245333e+00   3.6294901e+01
 4.2300000e+00   3.5594381e+01
 4.2354667e+00   3.5451530e+01
 4.2409333e+00   3.5271550e+01
 4.2464000e+00   3.5012273e+01
 4.2518667e+00   3.4912712e+01
 4.2573333e+00   3.4788695e+01
 4.2628000e+00   3.4551452e+01
 4.2682667e+00   3.4555633e+01
 4.2737333e+00   3.4400219e+01
 4.2792000e+00   3.4267216e+01
 4.2846667e+00   3.4357994e+01
 4.2901333e+00   3.4247546e+01
 4.2956000e+00   3.4292994e+01
 4.3010667e+00   3.4254234e+01
 4.3065333e+00   3.4163115e+01
 4.3120000e+00   3.4159755e+01
 4.3174667e+00   3.4049588e+01
 4.3229333e+00   3.4151541e+01
 4.3284000e+00   3.3787605e+01
 4.3338667e+00   3.4122757e+01
 4.3393333e+00   3.3864183e+01
 4.3448000e+00   3.4126186e+01
 4.3502667e+00   3.3901503e+01
 4.3557333e+00   3.4172852e+01
 4.3612000e+00   3.4041832e+01
 4.3666667e+00   3.4320073e+01
 4.3721333e+00   3.4232267e+01
 4.3776000e+00   3.4368655e+01
 4.3830667e+00   3.4337040e+01
 4.3885333e+00   3.4563795e+01
 4.3940000e+00   3.4670490e+01
 4.3994667e+00   3.4744060e+01
 4.4049333e+00   3.5150996e+01
 4.4104000e+00   3.5135364e+01
 4.4158667e+00   3.6267516e+01
 4.4213333e+00   3.6486948e+01
 4.4268000e+00   3.8116944e+01
 4.4322667e+00   3.8902114e+01
 4.4377333e+00   4.3655455e+01
 4.4432000e+00   5.1216741e+01
 4.4486667e+00   6.7442983e+01
 4.4541333e+00   8.8146459e+01
 4.4596000e+00   1.1194184e+02
 4.4650667e+00   1.4126421e+02
 4.4705333e+00   1.8140546e+02
 4.4760000e+00   2.2898502e+02
 4.4814667e+00   2.2389868e+02
 4.4869333e+00   2.7926643e+02
 4.4924000e+00   2.5935946e+02
 4.4978667e+00   2.9875338e+02
 4.5033333e+00   2.8142383e+02
 4.5088000e+00   4.2011829e+02
 4.5142667e+00   2.6378099e+02
 4.5197333e+00   3.7272211e+02
 4.5252000e+00   1.4248958e+02
 4.5306667e+00   2.6192322e+02
 4.5361333e+00   8.5484543e+01
 4.5416000e+00   1.2180563e+02
 4.5470667e+00   6.1064446e+01
 4.5525333e+00   6.8176366e+01
 4.5580000e+00   6.2962182e+01
 4.5634667e+00   7.0009169e+01
 4.5689333e+00   7.9108779e+01
 4.5744000e+00   9.1554295e+01
 4.5798667e+00   9.4528305e+01
 4.5853333e+00   1.1103706e+02
 4.5908000e+00   1.2166118e+02
 4.5962667e+00   1.1746664e+02
 4.6017333e+00   1.4576596e+02
 4.6072000e+00   1.3404167e+02
 4.6126667e+00   1.6603939e+02
 4.6181333e+00   1.3094564e+02
 4.6236000e+00   1.6854148e+02
 4.6290667e+00   1.1204722e+02
 4.6345333e+00   1.3953883e+02
 4.6400000e+00   9.1447382e+01
 4.6454667e+00   9.5035317e+01
 4.6509333e+00   8.0170497e+01
 4.6564000e+00   7.4413154e+01
 4.6618667e+00   8.0608392e+01
 4.6673333e+00   8.5832785e+01
 4.6728000e+00   1.2678611e+02
 4.6782667e+00   1.5736233e+02
 4.6837333e+00   2.7242871e+02
 4.6892000e+00   3.5595675e+02
 4.6946667e+00   4.9943086e+02
 4.7001333e+00   6.3983228e+02
 4.7056000e+00   7.5588985e+02
 4.7110667e+00   8.4850088e+02
 4.7165333e+00   1.0241840e+03
 4.7220000e+00   1.0377291e+03
 4.7274667e+00   1.1869164e+03
 4.7329333e+00   9.4468743e+02
 4.7384000e+00   9.7326555e+02
 4.7438667e+00   7.2601328e+02
 4.7493333e+00   5.2862604e+02
 4.7548000e+00   4.3513491e+02
 4.7602667e+00   2.1705404e+02
 4.7657333e+00   2.5195959e+02
 4.7712000e+00   1.1292085e+02
 4.7766667e+00   1.0396453e+02
 4.7821333e+00   5.7891962e+01
 4.7876000e+00   5.7359240e+01
 4.7930667e+00   4.4727833e+01
 4.7985333e+00   4.5181365e+01
 4.8040000e+00   4.1361121e+01
 4.8094667e+00   4.1630900e+01
 4.8149333e+00   3.9916014e+01
 4.8204000e+00   4.0312132e+01
 4.8258667e+00   3.9406289e+01
 4.8313333e+00   3.9923549e+01
 4.8368000e+00   3.9941317e+01
 4.8422667e+00   3.8557253e+01
 4.8477333e+00   4.0077003e+01
 4.8532000e+00   3.8765133e+01
 4.8586667e+00   3.9534500e+01
 4.8641333e+00   3.8296725e+01
 4.8696000e+00   3.8864740e+01
 4.8750667e+00   3.7917775e+01
 4.8805333e+00   3.8252309e+01
 4.8860000e+00   3.8059719e+01
 4.8914667e+00   3.7653922e+01
 4.8969333e+00   3.7787251e+01
 4.9024000e+00   3.7761153e+01
 4.9078667e+00   3.7663283e+01
 4.9133333e+00   3.7930555e+01
 4.9188000e+00   3.8202173e+01
 4.9242667e+00   3.7868312e+01
 4.9297333e+00   3.8584127e+01
 4.9352000e+00   3.8431464e+01
 4.9406667e+00   3.8940566e+01
 4.9461333e+00   3.9130963e+01
 4.9516000e+00   3.9494453e+01
 4.9570667e+00   3.9542389e+01
 4.9625333e+00   4.0791934e+01
 4.9680000e+00   4.1009283e+01
 4.9734667e+00   4.1808989e+01
 4.9789333e+00   4.3024063e+01
 4.9844000e+00   4.5699067e+01
 4.9898667e+00   4.7910593e+01
 4.9953333e+00   5.4655563e+01
 5.0008000e+00   6.3426518e+01
 5.0062667e+00   9.9486202e+01
 5.0117333e+00   1.0871655e+02
 5.0172000e+00   1.3429410e+02
 5.0226667e+00   1.5865227e+02
 5.0281333e+00   2.0200655e+02
 5.0336000e+00   2.7271809e+02
 5.0390667e+00   3.7701589e+02
 5.0445333e+00   3.9159792e+02
 5.0500000e+00   5.2607148e+02
 5.0554667e+00   4.6679476e+02
 5.0609333e+00   4.7418455e+02
 5.0664000e+00   4.4927401e+02
 5.0718667e+00   4.5051772e+02
 5.0773333e+00   3.9430372e+02
 5.0828000e+00   3.5671669e+02
 5.0882667e+00   3.0635014e+02
 5.0937333e+00   2.8253629e+02
 5.0992000e+00   2.0905229e+02
 5.1046667e+00   1.6126137e+02
 5.1101333e+00   1.5036219e+02
 5.1156000e+00   1.0425577e+02
 5.1210667e+00   7.3991126e+01
 5.1265333e+00   5.8970671e+01
 5.1320000e+00   5.0004774e+01
 5.1374667e+00   4.6149279e+01
 5.1429333e+00   4.5007381e+01
 5.1484000e+00   4.3914339e+01
 5.1538667e+00   4.4039180e+01
 5.1593333e+00   4.3658436e+01
 5.1648000e+00   4.4207748e+01
 5.1702667e+00   4.3422147e+01
 5.1757333e+00   4.4027522e+01
 5.1812000e+00   4.2794582e+01
 5.1866667e+00   4.2722987e+01
 5.1921333e+00   4.1635478e+01
 5.1976000e+00   4.0884868e+01
 5.2030667e+00   3.9645078e+01
 5.2085333e+00   3.8984277e+01
 5.2140000e+00   3.7911700e+01
 5.2194667e+00   3.6883586e+01
 5.2249333e+00   3.6477336e+01
 5.2304000e+00   3.5406674e+01
 5.2358667e+00   3.4739092e+01
 5.2413333e+00   3.4426997e+01
 5.2468000e+00   3.4041256e+01
 5.2522667e+00   3.3509224e+01
 5.2577333e+00   3.3667265e+01
 5.2632000e+00   3.3144112e+01
 5.2686667e+00   3.3254540e+01
 5.2741333e+00   3.2882114e+01
 5.2796000e+00   3.2846777e+01
 5.2850667e+00   3.2589739e+01
 5.2905333e+00   3.2589079e+01
 5.2960000e+00   3.2361051e+01
 5.3014667e+00   3.2310961e+01
 5.3069333e+00   3.2277377e+01
 5.3124000e+00   3.2130731e+01
 5.3178667e+00   3.2038138e+01
 5.3233333e+00   3.2080600e+01
 5.3288000e+00   3.1939464e+01
 5.3342667e+00   3.1976308e+01
 5.3397333e+00   3.1976566e+01
 5.3452000e+00   3.1820822e+01
 5.3506667e+00   3.1961455e+01
 5.3561333e+00   3.1803881e+01
 5.3616000e+00   3.1751356e+01
 5.3670667e+00   3.1628111e+01
 5.3725333e+00   3.1618789e+01
 5.3780000e+00   3.1478629e+01
 5.3834667e+00   3.1291988e+01
 5.3889333e+00   3.1303726e+01
 5.3944000e+00   3.1237540e+01
 5.3998667e+00   3.1080425e+01
 5.4053333e+00   3.1063805e+01
 5.4108000e+00   3.1032960e+01
 5.4162667e+00   3.0933528e+01
 5.4217333e+00   3.1054231e+01
 5.4272000e+00   3.0844740e+01
 5.4326667e+00   3.0924109e+01
 5.4381333e+00   3.0796615e+01
 5.4436000e+00   3.0800836e+01
 5.4490667e+00   3.0710397e+01
 5.4545333e+00   3.0793631e+01
 5.4600000e+00   3.0685040e+01
 5.4654667e+00   3.0742428e+01
 5.4709333e+00   3.0610603e+01
 5.4764000e+00   3.0581362e+01
 5.4818667e+00   3.0587574e+01
 5.4873333e+00   3.0612872e+01
 5.4928000e+00   3.0534668e+01
 5.4982667e+00   3.0618660e+01
 5.5037333e+00   3.0627837e+01
 5.5092000e+00   3.0440255e+01
 5.5146667e+00   3.0587435e+01
 5.5201333e+00   3.0407199e+01
 5.5256000e+00   3.0486749e+01
 5.5310667e+00   3.0445408e+01
 5.5365333e+00   3.0555557e+01
 5.5420000e+00   3.0445029e+01
 5.5474667e+00   3.0621066e+01
 5.5529333e+00   3.0495019e+01
 5.5584000e+00   3.0586537e+01
 5.5638667e+00   3.0556071e+01
 5.5693333e+00   3.0659804e+01
 5.5748000e+00   3.0670446e+01
 5.5802667e+00   3.0730520e+01
 5.5857333e+00   3.0858561e+01
 5.5912000e+00   3.0941237e+01
 5.5966667e+00   3.0950996e+01
 5.6021333e+00   3.1000285e+01
 5.6076000e+00   3.1105574e+01
 5.6130667e+00   3.1052099e+01
 5.6185333e+00   3.1116604e+01
 5.6240000e+00   3.1069238e+01
 5.6294667e+00   3.0978146e+01
 5.6349333e+00   3.1012298e+01
 5.6404000e+00   3.0946544e+01
 5.6458667e+00   3.0959133e+01
 5.6513333e+00   3.1085485e+01
 5.6568000e+00   3.1114346e+01
 5.6622667e+00   3.1075130e+01
 5.6677333e+00   3.1462184e+01
 5.6732000e+00   3.1272032e+01
 5.6786667e+00   3.1485350e+01
 5.6841333e+00   3.1454958e+01
 5.6896000e+00   3.1645266e+01
 5.6950667e+00   3.1678365e+01
 5.7005333e+00   3.1929318e+01
 5.7060000e+00   3.1966029e+01
 5.7114667e+00   3.2194773e+01
 5.7169333e+00   3.2171009e+01
 5.7224000e+00   3.2604855e+01
 5.7278667e+00   3.2553399e+01
 5.7333333e+00   3.3029593e+01
 5.7388000e+00   3.3150107e+01
 5.7442667e+00   3.3334367e+01
 5.7497333e+00   3.3832859e+01
 5.7552000e+00   3.3944845e+01
 5.7606667e+00   3.4972129e+01
 5.7661333e+00   3.5061215e+01
 5.7716000e+00   3.6726559e+01
 5.7770667e+00   3.7244531e+01
 5.7825333e+00   3.9877614e+01
 5.7880000e+00   4.3482306e+01
 5.7934667e+00   4.8367713e+01
 5.7989333e+00   6.3017898e+01
 5.8044000e+00   6.1534434e+01
 5.8098667e+00   8.5353721e+01
 5.8153333e+00   9.3209635e+01
 5.8208000e+00   1.2593375e+02
 5.8262667e+00   1.5207545e+02
 5.8317333e+00   2.1723037e+02
 5.8372000e+00   2.4159784e+02
 5.8426667e+00   2.5452565e+02
 5.8481333e+00   3.0431292e+02
 5.8536000e+00   2.5946377e+02
 5.8590667e+00   2.6447845e+02
 5.8645333e+00   2.6444393e+02
 5.8700000e+00   2.6405692e+02
 5.8754667e+00   1.6683707e+02
 5.8809333e+00   1.7155543e+02
 5.8864000e+00   1.4093879e+02
 5.8918667e+00   1.0344119e+02
 5.8973333e+00   7.6105729e+01
 5.9028000e+00   7.2336110e+01
 5.9082667e+00   5.1972321e+01
 5.9137333e+00   4.6785962e+01
 5.9192000e+00   3.9151484e+01
 5.9246667e+00   3.7369085e+01
 5.9301333e+00   3.5331662e+01
 5.9356000e+00   3.4684004e+01
 5.9410667e+00   3.3768124e+01
 5.9465333e+00   3.3751170e+01
 5.9520000e+00   3.2959180e+01
 5.9574667e+00   3.3000984e+01
 5.9629333e+00   3.2530967e+01
 5.9684000e+00   3.2708874e+01
 5.9738667e+00   3.2113371e+01
 5.9793333e+00   3.2461742e+01
 5.9848000e+00   3.2082246e+01
 5.9902667e+00   3.2129896e+01
 5.9957333e+00   3.1870004e+01
 6.0012000e+00   3.1787305e+01
 6.0066667e+00   3.1776096e+01
 6.0121333e+00   3.1638973e+01
 6.0176000e+00   3.1634560e+01
 6.0230667e+00   3.1609961e+01
 6.0285333e+00   3.1634643e+01
 6.0340000e+00   3.1642828e+01
 6.0394667e+00   3.1941674e+01
 6.0449333e+00   3.1928779e+01
 6.0504000e+00   3.2471788e+01
 6.0558667e+00   3.2787145e+01
 6.0613333e+00   3.3729750e+01
 6.0668000e+00   3.5301601e+01
 6.0722667e+00   3.8512440e+01
 6.0777333e+00   4.3848498e+01
 6.0832000e+00   5.3923264e+01
 6.0886667e+00   6.8770059e+01
 6.0941333e+00   8.7762767e+01
 6.0996000e+00   1.1842452e+02
 6.1050667e+00   1.4959554e+02
 6.1105333e+00   1.8514525e+02
 6.1160000e+00   2.1527774e+02
 6.1214667e+00   2.2568088e+02
 6.1269333e+00   2.1477506e+02
 6.1324000e+00   2.0633302e+02
 6.1378667e+00   1.7694715e+02
 6.1433333e+00   1.6271654e+02
 6.1488000e+00   1.1947474e+02
 6.1542667e+00   1.0219028e+02
 6.1597333e+00   6.7860297e+01
 6.1652000e+00   5.5482737e+01
 6.1706667e+00   4.3090164e+01
 6.1761333e+00   3.8556279e+01
 6.1816000e+00   3.4152952e+01
 6.1870667e+00   3.2868546e+01
 6.1925333e+00   3.1382651e+01
 6.1980000e+00   3.1055661e+01
 6.2034667e+00   3.0519719e+01
 6.2089333e+00   3.0474395e+01
 6.2144000e+00   3.0224660e+01
 6.2198667e+00   3.0253022e+01
 6.2253333e+00   3.0151975e+01
 6.2308000e+00   2.9988249e+01
 6.2362667e+00   3.0121212e+01
 6.2417333e+00   2.9910192e+01
 6.2472000e+00   2.9920522e+01
 6.2526667e+00   2.9721917e+01
 6.2581333e+00   2.9764831e+01
 6.2636000e+00   2.9561221e+01
 6.2690667e+00   2.9616830e+01
 6.2745333e+00   2.9420113e+01
 6.2800000e+00   2.9442569e+01
 6.2854667e+00   2.9392044e+01
 6.2909333e+00   2.9428675e+01
 6.2964000e+00   2.9276771e+01
 6.3018667e+00   2.9339925e+01
 6.3073333e+00   2.9298328e+01
 6.3128000e+00   2.9287529e+01
 6.3182667e+00   2.9251651e+01
 6.3237333e+00   2.9230758e+01
 6.3292000e+00   2.9125511e+01
 6.3346667e+00   2.9166973e+01
 6.3401333e+00   2.9211073e+01
 6.3456000e+00   2.9090349e+01
 6.3510667e+00   2.9206077e+01
 6.3565333e+00   2.9173726e+01
 6.3620000e+00   2.9232551e+01
 6.3674667e+00   2.9117670e+01
 6.3729333e+00   2.9343096e+01
 6.3784000e+00   2.9593175e+01
 6.3838667e+00   2.9792572e+01
 6.3893333e+00   2.9543104e+01
 6.3948000e+00   2.9661511e+01
 6.4002667e+00   2.9261185e+01
 6.4057333e+00   2.9395590e+01
 6.4112000e+00   2.9341476e+01
 6.4166667e+00   3.0092621e+01
 6.4221333e+00   2.9582280e+01
 6.4276000e+00   2.9532349e+01
 6.4330667e+00   2.9654301e+01
 6.4385333e+00   2.9727122e+01
 6.4440000e+00   3.0107568e+01
 6.4494667e+00   3.0473437e+01
 6.4549333e+00   3.1001129e+01
 6.4604000e+00   3.1543257e+01
 6.4658667e+00   3.2749147e+01
 6.4713333e+00   3.3399946e+01
 6.4768000e+00   3.4888224e+01
 6.4822667e+00   3.6149478e+01
 6.4877333e+00   3.8259670e+01
 6.4932000e+00   3.9152739e+01
 6.4986667e+00   4.2161774e+01
 6.5041333e+00   4.1633858e+01
 6.5096000e+00   4.2598428e+01
 6.5150667e+00   4.3594050e+01
 6.5205333e+00   4.1757280e+01
 6.5260000e+00   4.1847276e+01
 6.5314667e+00   4.0455802e+01
 6.5369333e+00   3.9589881e+01
 6.5424000e+00   3.7443332e+01
 6.5478667e+00   3.6348765e+01
 6.5533333e+00   3.5163183e+01
 6.5588000e+00   3.4043384e+01
 6.5642667e+00   3.2470709e+01
 6.5697333e+00   3.1873543e+01
 6.5752000e+00   3.1143414e+01
 6.5806667e+00   3.0751184e+01
 6.5861333e+00   3.0203706e+01
 6.5916000e+00   3.0012206e+01
 6.5970667e+00   2.9750872e+01
 6.6025333e+00   2.9539613e+01
 6.6080000e+00   2.9529232e+01
 6.6134667e+00   2.9372700e+01
 6.6189333e+00   2.9330809e+01
 6.6244000e+00   2.9148833e+01
 6.6298667e+00   2.9232220e+01
 6.6353333e+00   2.9093185e+01
 6.6408000e+00   2.9178927e+01
 6.6462667e+00   2.9044127e+01
 6.6517333e+00   2.9206121e+01
 6.6572000e+00   2.9055100e+01
 6.6626667e+00   2.9100268e+01
 6.6681333e+00   2.9080794e+01
 6.6736000e+00   2.9127757e+01
 6.6790667e+00   2.9027460e+01
 6.6845333e+00   2.9142520e+01
 6.6900000e+00   2.9095253e+01
 6.6954667e+00   2.9062245e+01
 6.7009333e+00   2.9073034e+01
 6.7064000e+00   2.9065212e+01
 6.7118667e+00   2.9148455e+01
 6.7173333e+00   2.9073277e+01
 6.7228000e+00   2.9220157e+01
 6.7282667e+00   2.9087698e+01
 6.7337333e+00   2.9180515e+01
 6.7392000e+00   2.9105563e+01
 6.7446667e+00   2.9227718e+01
 6.7501333e+00   2.9146812e+01
 6.7556000e+00   2.9219016e+01
 6.7610667e+00   2.9138503e+01
 6.7665333e+00   2.9278972e+01
 6.7720000e+00   2.9196784e+01
 6.7774667e+00   2.9329378e+01
 6.7829333e+00   2.9354643e+01
 6.7884000e+00   2.9343656e+01
 6.7938667e+00   2.9316436e+01
 6.7993333e+00   2.9351565e+01
 6.8048000e+00   2.9452351e+01
 6.8102667e+00   2.9483358e+01
 6.8157333e+00   2.9528712e+01
 6.8212000e+00   2.9963257e+01
 6.8266667e+00   2.9576361e+01
 6.8321333e+00   2.9559990e+01
 6.8376000e+00   2.9556929e+01
 6.8430667e+00   2.9483597e+01
 6.8485333e+00   2.9608386e+01
 6.8540000e+00   2.9515988e+01
 6.8594667e+00   2.9670329e+01
 6.8649333e+00   2.9601683e+01
 6.8704000e+00   2.9663442e+01
 6.8758667e+00   2.9658167e+01
 6.8813333e+00   2.9737833e+01
 6.8868000e+00   2.9698351e+01
 6.8922667e+00   2.9796114e+01
 6.8977333e+00   2.9845454e+01
 6.9032000e+00   2.9837845e+01
 6.9086667e+00   2.9965180e+01
 6.9141333e+00   2.9865864e+01
 6.9196000e+00   3.0026603e+01
 6.9250667e+00   2.9938318e+01
 6.9305333e+00   3.0026830e+01
 6.9360000e+00   3.0002688e+01
 6.9414667e+00   3.0147938e+01
 6.9469333e+00   3.0042323e+01
 6.9524000e+00   3.0232180e+01
 6.9578667e+00   3.0192595e+01
 6.9633333e+00   3.0279847e+01
 6.9688000e+00   3.0318054e+01
 6.9742667e+00   3.0431781e+01
 6.9797333e+00   3.0578168e+01
 6.9852000e+00   3.0847097e+01
 6.9906667e+00   3.0595566e+01
 6.9961333e+00   3.0711580e+01
 7.0016000e+00   3.0791903e+01
 7.0070667e+00   3.0650118e+01
 7.0125333e+00   3.0790044e+01
 7.0180000e+00   3.0839678e+01
 7.0234667e+00   3.1012748e+01
 7.0289333e+00   3.0873588e+01
 7.0344000e+00   3.1092799e+01
 7.0398667e+00   3.1121074e+01
 7.0453333e+00   3.1169438e+01
 7.0508000e+00   3.1212610e+01
 7.0562667e+00   3.1508209e+01
 7.0617333e+00   3.1378512e+01
 7.0672000e+00   3.1683278e+01
 7.0726667e+00   3.1654761e+01
 7.0781333e+00   3.1876227e+01
 7.0836000e+00   3.1865095e+01
 7.0890667e+00   3.2146109e+01
 7.0945333e+00   3.2158824e+01
 7.1000000e+00   3.2427232e+01
 7.1054667e+00   3.2713570e+01
 7.1109333e+00   3.2961026e+01
 7.1164000e+00   3.3520617e+01
 7.1218667e+00   3.4214669e+01
 7.1273333e+00   3.5417334e+01
 7.1328000e+00   3.7120040e+01
 7.1382667e+00   4.1201630e+01
 7.1437333e+00   4.6643827e+01
 7.1492000e+00   5.2796961e+01
 7.1546667e+00   7.0158993e+01
 7.1601333e+00   8.7594812e+01
 7.1656000e+00   1.0984115e+02
 7.1710667e+00   1.4720688e+02
 7.1765333e+00   1.7319326e+02
 7.1820000e+00   2.0804245e+02
 7.1874667e+00   2.3822521e+02
 7.1929333e+00   2.6324062e+02
 7.1984000e+00   2.3725248e+02
 7.2038667e+00   2.6401285e+02
 7.2093333e+00   1.9271751e+02
 7.2148000e+00   1.7057380e+02
 7.2202667e+00   1.2486380e+02
 7.2257333e+00   1.0388954e+02
 7.2312000e+00   8.2419566e+01
 7.2366667e+00   6.6183195e+01
 7.2421333e+00   5.4329660e+01
 7.2476000e+00   4.5214779e+01
 7.2530667e+00   3.9395179e+01
 7.2585333e+00   3.6231581e+01
 7.2640000e+00   3.5021601e+01
 7.2694667e+00   3.3770237e+01
 7.2749333e+00   3.3442289e+01
 7.2804000e+00   3.3050537e+01
 7.2858667e+00   3.3015722e+01
 7.2913333e+00   3.2761651e+01
 7.2968000e+00   3.2851242e+01
 7.3022667e+00   3.2769097e+01
 7.3077333e+00   3.2725881e+01
 7.3132000e+00   3.2711871e+01
 7.3186667e+00   3.2637918e+01
 7.3241333e+00   3.2601148e+01
 7.3296000e+00   3.2485010e+01
 7.3350667e+00   3.2496019e+01
 7.3405333e+00   3.2365258e+01
 7.3460000e+00   3.2455116e+01
 7.3514667e+00   3.2261869e+01
 7.3569333e+00   3.2348977e+01
 7.3624000e+00   3.2128782e+01
 7.3678667e+00   3.2235510e+01
 7.3733333e+00   3.2021846e+01
 7.3788000e+00   3.1985774e+01
 7.3842667e+00   3.1905227e+01
 7.3897333e+00   3.1917615e+01
 7.3952000e+00   3.1788996e+01
 7.4006667e+00   3.1918214e+01
 7.4061333e+00   3.1807787e+01
 7.4116000e+00   3.1698516e+01
 7.4170667e+00   3.1742291e+01
 7.4225333e+00   3.1627237e+01
 7.4280000e+00   3.1661935e+01
 7.4334667e+00   3.1556022e+01
 7.4389333e+00   3.1665907e+01
 7.4444000e+00   3.1458077e+01
 7.4498667e+00   3.1579249e+01
 7.4553333e+00   3.1510973e+01
 7.4608000e+00   3.1557072e+01
 7.4662667e+00   3.1471668e+01
 7.4717333e+00   3.1542214e+01
 7.4772000e+00   3.1479580e+01
 7.4826667e+00   3.1511626e+01
 7.4881333e+00   3.1425423e+01
 7.4936000e+00   3.1448329e+01
 7.4990667e+00   3.1467933e+01
 7.5045333e+00   3.1429168e+01
 7.5100000e+00   3.1563847e+01
 7.5154667e+00   3.1466359e+01
 7.5209333e+00   3.1619204e+01
 7.5264000e+00   3.1511540e+01
 7.5318667e+00   3.1695624e+01
 7.5373333e+00   3.1588200e+01
 7.5428000e+00   3.1665126e+01
 7.5482667e+00   3.1613921e+01
 7.5537333e+00   3.1778735e+01
 7.5592000e+00   3.1657140e+01
 7.5646667e+00   3.1765997e+01
 7.5701333e+00   3.1710993e+01
 7.5756000e+00   3.1738853e+01
 7.5810667e+00   3.1688408e+01
 7.5865333e+00   3.1787590e+01
 7.5920000e+00   3.1842955e+01
 7.5974667e+00   3.1839122e+01
 7.6029333e+00   3.1754644e+01
 7.6084000e+00   3.1876076e+01
 7.6138667e+00   3.1764046e+01
 7.6193333e+00   3.1891135e+01
 7.6248000e+00   3.1842497e+01
 7.6302667e+00   3.1853558e+01
 7.6357333e+00   3.1869331e+01
 7.6412000e+00   3.1790414e+01
 7.6466667e+00   3.1862493e+01
 7.6521333e+00   3.1842936e+01
 7.6576000e+00   3.1908246e+01
 7.6630667e+00   3.1817345e+01
 7.6685333e+00   3.2006099e+01
 7.6740000e+00   3.1907527e+01
 7.6794667e+00   3.2030788e+01
 7.6849333e+00   3.2049028e+01
 7.6904000e+00   3.2048937e+01
 7.6958667e+00   3.2054314e+01
 7.7013333e+00   3.2086960e+01
 7.7068000e+00   3.2111238e+01
 7.7122667e+00   3.2237601e+01
 7.7177333e+00   3.2319987e+01
 7.7232000e+00   3.2218190e+01
 7.7286667e+00   3.2396487e+01
 7.7341333e+00   3.2325446e+01
 7.7396000e+00   3.2555305e+01
 7.7450667e+00   3.2371160e+01
 7.7505333e+00   3.2512300e+01
 7.7560000e+00   3.2396321e+01
 7.7614667e+00   3.2581278e+01
 7.7669333e+00   3.2572844e+01
 7.7724000e+00   3.2741630e+01
 7.7778667e+00   3.2690834e+01
 7.7833333e+00   3.2920730e+01
 7.7888000e+00   3.2855448e+01
 7.7942667e+00   3.3041057e+01
 7.7997333e+00   3.3120228e+01
 7.8052000e+00   3.3245876e+01
 7.8106667e+00   3.3459892e+01
 7.8161333e+00   3.3627807e+01
 7.8216000e+00   3.3831516e+01
 7.8270667e+00   3.4002338e+01
 7.8325333e+00   3.4336062e+01
 7.8380000e+00   3.4387755e+01
 7.8434667e+00   3.4818597e+01
 7.8489333e+00   3.5061284e+01
 7.8544000e+00   3.5619370e+01
 7.8598667e+00   3.6072813e+01
 7.8653333e+00   3.7000181e+01
 7.8708000e+00   3.8540349e+01
 7.8762667e+00   4.1039293e+01
 7.8817333e+00   4.4665178e+01
 7.8872000e+00   5.4169583e+01
 7.8926667e+00   6.6992700e+01
 7.8981333e+00   8.3777937e+01
 7.9036000e+00   1.1291508e+02
 7.9090667e+00   1.4409849e+02
 7.9145333e+00   1.8096736e+02
 7.9200000e+00   2.2448240e+02
 7.9254667e+00   2.7387845e+02
 7.9309333e+00   3.0659930e+02
 7.9364000e+00   3.3140033e+02
 7.9418667e+00   3.1933613e+02
 7.9473333e+00   2.8739459e+02
 7.9528000e+00   2.2963507e+02
 7.9582667e+00   1.7719261e+02
 7.9637333e+00   1.3716334e+02
 7.9692000e+00   1.0578559e+02
 7.9746667e+00   8.5785787e+01
 7.9801333e+00   7.4477628e+01
 7.9856000e+00   6.4819005e+01
 7.9910667e+00   5.8069828e+01
 7.9965333e+00   5.7167584e+01
 8.0020000e+00   5.3792088e+01
 8.0074667e+00   5.0321545e+01
 8.0129333e+00   5.0892686e+01
 8.0184000e+00   4.7499871e+01
 8.0238667e+00   4.4990161e+01
 8.0293333e+00   4.4732176e+01
 8.0348000e+00   4.2640581e+01
 8.0402667e+00   4.0258572e+01
 8.0457333e+00   3.9948104e+01
 8.0512000e+00   3.8801717e+01
 8.0566667e+00   3.7613618e+01
 8.0621333e+00   3.7286655e+01
 8.0676000e+00   3.6622511e+01
 8.0730667e+00   3.6224814e+01
 8.0785333e+00   3.5824529e+01
 8.0840000e+00   3.5752117e+01
 8.0894667e+00   3.5488555e+01
 8.0949333e+00   3.5400321e+01
 8.1004000e+00   3.5265892e+01
 8.1058667e+00   3.5255849e+01
 8.1113333e+00   3.5218245e+01
 8.1168000e+00   3.5265180e+01
 8.1222667e+00   3.5285289e+01
 8.1277333e+00   3.5248984e+01
 8.1332000e+00   3.5448688e+01
 8.1386667e+00   3.5271088e+01
 8.1441333e+00   3.5548374e+01
 8.1496000e+00   3.5406662e+01
 8.1550667e+00   3.5640421e+01
 8.1605333e+00   3.5493674e+01
 8.1660000e+00   3.5853434e+01
 8.1714667e+00   3.5714322e+01
 8.1769333e+00   3.6023886e+01
 8.1824000e+00   3.5963047e+01
 8.1878667e+00   3.6376415e+01
 8.1933333e+00   3.6314908e+01
 8.1988000e+00   3.6777705e+01
 8.2042667e+00   3.7247847e+01
 8.2097333e+00   3.7997515e+01
 8.2152000e+00   3.9310834e+01
 8.2206667e+00   4.0703838e+01
 8.2261333e+00   4.5424671e+01
 8.2316000e+00   4.6879556e+01
 8.2370667e+00   6.9687841e+01
 8.2425333e+00   7.4814481e+01
 8.2480000e+00   9.1542551e+01
 8.2534667e+00   9.5763334e+01
 8.2589333e+00   1.1377777e+02
 8.2644000e+00   1.2851692e+02
 8.2698667e+00   1.3179508e+02
 8.2753333e+00   1.4518769e+02
 8.2808000e+00   1.6465998e+02
 8.2862667e+00   1.3572865e+02
 8.2917333e+00   1.2429551e+02
 8.2972000e+00   1.0161983e+02
 8.3026667e+00   9.5340950e+01
 8.3081333e+00   1.1024461e+02
 8.3136000e+00   1.1810331e+02
 8.3190667e+00   1.0365186e+02
 8.3245333e+00   9.2616965e+01
 8.3300000e+00   9.9663103e+01
 8.3354667e+00   6.1531835e+01
 8.3409333e+00   6.7293583e+01
 8.3464000e+00   4.5560051e+01
 8.3518667e+00   4.5681553e+01
 8.3573333e+00   4.0114011e+01
 8.3628000e+00   3.9678539e+01
 8.3682667e+00   3.8087737e+01
 8.3737333e+00   3.8015729e+01
 8.3792000e+00   3.7523096e+01
 8.3846667e+00   3.7661910e+01
 8.3901333e+00   3.7509211e+01
 8.3956000e+00   3.7904700e+01
 8.4010667e+00   3.7757973e+01
 8.4065333e+00   3.8352574e+01
 8.4120000e+00   3.8589546e+01
 8.4174667e+00   3.9488695e+01
 8.4229333e+00   4.0339685e+01
 8.4284000e+00   4.2651915e+01
 8.4338667e+00   4.5951843e+01
 8.4393333e+00   5.3327833e+01
 8.4448000e+00   6.2376479e+01
 8.4502667e+00   8.1083396e+01
 8.4557333e+00   9.8795998e+01
 8.4612000e+00   1.2696421e+02
 8.4666667e+00   1.5746205e+02
 8.4721333e+00   1.8099445e+02
 8.4776000e+00   2.0128689e+02
 8.4830667e+00   2.2048777e+02
 8.4885333e+00   2.1874980e+02
 8.4940000e+00   2.2117744e+02
 8.4994667e+00   2.0974496e+02
 8.5049333e+00   1.9041745e+02
 8.5104000e+00   1.6640684e+02
 8.5158667e+00   1.3726537e+02
 8.5213333e+00   1.1231761e+02
 8.5268000e+00   8.6450145e+01
 8.5322667e+00   7.2226644e+01
 8.5377333e+00   5.7648849e+01
 8.5432000e+00   5.1631654e+01
 8.5486667e+00   4.6489980e+01
 8.5541333e+00   4.5855161e+01
 8.5596000e+00   4.7076200e+01
 8.5650667e+00   5.1509451e+01
 8.5705333e+00   5.8309012e+01
 8.5760000e+00   7.0253369e+01
 8.5814667e+00   8.4485992e+01
 8.5869333e+00   1.0339759e+02
 8.5924000e+00   1.2078959e+02
 8.5978667e+00   1.3782683e+02
 8.6033333e+00   1.5059971e+02
 8.6088000e+00   1.5294452e+02
 8.6142667e+00   1.5328451e+02
 8.6197333e+00   1.4895340e+02
 8.6252000e+00   1.3601658e+02
 8.6306667e+00   1.2585941e+02
 8.6361333e+00   1.0262215e+02
 8.6416000e+00   8.5769871e+01
 8.6470667e+00   6.8261927e+01
 8.6525333e+00   5.6548381e+01
 8.6580000e+00   4.8527796e+01
 8.6634667e+00   4.3142170e+01
 8.6689333e+00   3.9957737e+01
 8.6744000e+00   3.7959417e+01
 8.6798667e+00   3.6615303e+01
 8.6853333e+00   3.6040961e+01
 8.6908000e+00   3.5423580e+01
 8.6962667e+00   3.5226996e+01
 8.7017333e+00   3.4804434e+01
 8.7072000e+00   3.5064845e+01
 8.7126667e+00   3.4507793e+01
 8.7181333e+00   3.4872965e+01
 8.7236000e+00   3.4451997e+01
 8.7290667e+00   3.4599480e+01
 8.7345333e+00   3.4206109e+01
 8.7400000e+00   3.4081875e+01
 8.7454667e+00   3.3716376e+01
 8.7509333e+00   3.3936638e+01
 8.7564000e+00   3.3561266e+01
 8.7618667e+00   3.3772338e+01
 8.7673333e+00   3.3496995e+01
 8.7728000e+00   3.3499832e+01
 8.7782667e+00   3.3310039e+01
 8.7837333e+00   3.3373317e+01
 8.7892000e+00   3.3168766e+01
 8.7946667e+00   3.3122865e+01
 8.8001333e+00   3.3080387e+01
 8.8056000e+00   3.2938852e+01
 8.8110667e+00   3.2889792e+01
 8.8165333e+00   3.2973813e+01
 8.8220000e+00   3.2914280e+01
 8.8274667e+00   3.2869598e+01
 8.8329333e+00   3.2954742e+01
 8.8384000e+00   3.2463791e+01
 8.8438667e+00   3.2587909e+01
 8.8493333e+00   3.2295345e+01
 8.8548000e+00   3.2437223e+01
 8.8602667e+00   3.2166185e+01
 8.8657333e+00   3.2299975e+01
 8.8712000e+00   3.2012106e+01
 8.8766667e+00   3.2187556e+01
 8.8821333e+00   3.1982627e+01
 8.8876000e+00   3.2162098e+01
 8.8930667e+00   3.1910115e+01
 8.8985333e+00   3.2143385e+01
 8.9040000e+00   3.2088686e+01
 8.9094667e+00   3.2065201e+01
 8.9149333e+00   3.2152813e+01
 8.9204000e+00   3.2189519e+01
 8.9258667e+00   3.2410897e+01
 8.9313333e+00   3.2149055e+01
 8.9368000e+00   3.2343194e+01
 8.9422667e+00   3.2359480e+01
 8.9477333e+00   3.2572713e+01
 8.9532000e+00   3.2844967e+01
 8.9586667e+00   3.3436757e+01
 8.9641333e+00   3.3903445e+01
 8.9696000e+00   3.6275225e+01
 8.9750667e+00   3.8649187e+01
 8.9805333e+00   4.0790387e+01
 8.9860000e+00   4.5354866e+01
 8.9914667e+00   4.7757642e+01
 8.9969333e+00   4.6331964e+01
 9.0024000e+00   5.3199021e+01
 9.0078667e+00   5.2595412e+01
 9.0133333e+00   4.7796499e+01
 9.0188000e+00   5.1264744e+01
 9.0242667e+00   4.9718396e+01
 9.0297333e+00   4.9968761e+01
 9.0352000e+00   4.8647146e+01
 9.0406667e+00   4.4354378e+01
 9.0461333e+00   3.9279233e+01
 9.0516000e+00   3.5434928e+01
 9.0570667e+00   3.2764576e+01
 9.0625333e+00   3.1647365e+01
 9.0680000e+00   3.0603820e+01
 9.0734667e+00   3.0394758e+01
 9.0789333e+00   2.9794126e+01
 9.0844000e+00   2.9901598e+01
 9.0898667e+00   2.9548359e+01
 9.0953333e+00   2.9585482e+01
 9.1008000e+00   2.9378464e+01
 9.1062667e+00   2.9532897e+01
 9.1117333e+00   2.9252311e+01
 9.1172000e+00   2.9330191e+01
 9.1226667e+00   2.9160024e+01
 9.1281333e+00   2.9204842e+01
 9.1336000e+00   2.9102688e+01
 9.1390667e+00   2.9191393e+01
 9.1445333e+00   2.9109068e+01
 9.1500000e+00   2.9055199e+01
 9.1554667e+00   2.9174240e+01
 9.1609333e+00   2.9169152e+01
 9.1664000e+00   2.9238009e+01
 9.1718667e+00   2.9533054e+01
 9.1773333e+00   2.9737164e+01
 9.1828000e+00   2.9760510e+01
 9.1882667e+00   3.0506986e+01
 9.1937333e+00   3.0504421e+01
 9.1992000e+00   3.0807496e+01
 9.2046667e+00   3.1162141e+01
 9.2101333e+00   3.1567299e+01
 9.2156000e+00   3.1048809e+01
 9.2210667e+00   3.1856154e+01
 9.2265333e+00   3.1488519e+01
 9.2320000e+00   3.1330253e+01
 9.2374667e+00   3.1247122e+01
 9.2429333e+00   3.1225252e+01
 9.2484000e+00   3.0579270e+01
 9.2538667e+00   3.0582989e+01
 9.2593333e+00   3.0184233e+01
 9.2648000e+00   2.9892315e+01
 9.2702667e+00   2.9617748e+01
 9.2757333e+00   2.9458726e+01
 9.2812000e+00   2.9028966e+01
 9.2866667e+00   2.8859459e+01
 9.2921333e+00   2.8680161e+01
 9.2976000e+00   2.8387206e+01
 9.3030667e+00   2.8196659e+01
 9.3085333e+00   2.8114353e+01
 9.3140000e+00   2.7973464e+01
 9.3194667e+00   2.7781522e+01
 9.3249333e+00   2.7847366e+01
 9.3304000e+00   2.7725265e+01
 9.3358667e+00   2.7628019e+01
 9.3413333e+00   2.7519290e+01
 9.3468000e+00   2.7510645e+01
 9.3522667e+00   2.7436755e+01
 9.3577333e+00   2.7551335e+01
 9.3632000e+00   2.7354407e+01
 9.3686667e+00   2.7539903e+01
 9.3741333e+00   2.7492622e+01
 9.3796000e+00   2.7612523e+01
 9.3850667e+00   2.7660755e+01
 9.3905333e+00   2.7942234e+01
 9.3960000e+00   2.8397486e+01
 9.4014667e+00   2.9095019e+01
 9.4069333e+00   3.0119670e+01
 9.4124000e+00   3.1951561e+01
 9.4178667e+00   3.4063031e+01
 9.4233333e+00   3.7445411e+01
 9.4288000e+00   4.0613610e+01
 9.4342667e+00   4.3753348e+01
 9.4397333e+00   4.6581413e+01
 9.4452000e+00   4.8242869e+01
 9.4506667e+00   4.8964205e+01
 9.4561333e+00   4.9923334e+01
 9.4616000e+00   4.9600940e+01
 9.4670667e+00   4.9141932e+01
 9.4725333e+00   4.7578073e+01
 9.4780000e+00   4.5496092e+01
 9.4834667e+00   4.2028785e+01
 9.4889333e+00   3.8866803e+01
 9.4944000e+00   3.5330931e+01
 9.4998667e+00   3.3317835e+01
 9.5053333e+00   3.0477997e+01
 9.5108000e+00   2.9610677e+01
 9.5162667e+00   2.8187380e+01
 9.5217333e+00   2.7846517e+01
 9.5272000e+00   2.7441319e+01
 9.5326667e+00   2.7323859e+01
 9.5381333e+00   2.7213185e+01
 9.5436000e+00   2.7219661e+01
 9.5490667e+00   2.7203903e+01
 9.5545333e+00   2.7293408e+01
 9.5600000e+00   2.7238484e+01
 9.5654667e+00   2.7487668e+01
 9.5709333e+00   2.7405709e+01
 9.5764000e+00   2.7536960e+01
 9.5818667e+00   2.7404520e+01
 9.5873333e+00   2.7664303e+01
 9.5928000e+00   2.7566626e+01
 9.5982667e+00   2.7827882e+01
 9.6037333e+00   2.7706945e+01
 9.6092000e+00   2.7856560e+01
 9.6146667e+00   2.7993831e+01
 9.6201333e+00   2.8132658e+01
 9.6256000e+00   2.8350328e+01
 9.6310667e+00   2.8896642e+01
 9.6365333e+00   2.9231614e+01
 9.6420000e+00   3.0120639e+01
 9.6474667e+00   3.2564770e+01
 9.6529333e+00   3.6582687e+01
 9.6584000e+00   4.2474020e+01
 9.6638667e+00   5.8621194e+01
 9.6693333e+00   5.7476332e+01
 9.6748000e+00   8.1306553e+01
 9.6802667e+00   9.1838287e+01
 9.6857333e+00   1.0079401e+02
 9.6912000e+00   1.3217257e+02
 9.6966667e+00   1.6184341e+02
 9.7021333e+00   1.5821639e+02
 9.7076000e+00   1.7807651e+02
 9.7130667e+00   1.9172668e+02
 9.7185333e+00   1.7966205e+02
 9.7240000e+00   1.8854021e+02
 9.7294667e+00   1.8093130e+02
 9.7349333e+00   2.1137978e+02
 9.7404000e+00   1.5977350e+02
 9.7458667e+00   1.7754554e+02
 9.7513333e+00   1.2490789e+02
 9.7568000e+00   1.1610062e+02
 9.7622667e+00   6.8488654e+01
 9.7677333e+00   5.9680290e+01
 9.7732000e+00   4.2570265e+01
 9.7786667e+00   3.8104371e+01
 9.7841333e+00   3.4122146e+01
 9.7896000e+00   3.0497936e+01
 9.7950667e+00   2.9435626e+01
 9.8005333e+00   2.8671551e+01
 9.8060000e+00   2.8281033e+01
 9.8114667e+00   2.7813273e+01
 9.8169333e+00   2.7734431e+01
 9.8224000e+00   2.7471024e+01
 9.8278667e+00   2.7323004e+01
 9.8333333e+00   2.7153992e+01
 9.8388000e+00   2.7091701e+01
 9.8442667e+00   2.6905489e+01
 9.8497333e+00   2.6963148e+01
 9.8552000e+00   2.6848937e+01
 9.8606667e+00   2.7035669e+01
 9.8661333e+00   2.6938343e+01
 9.8716000e+00   2.7266781e+01
 9.8770667e+00   2.7557236e+01
 9.8825333e+00   2.8431434e+01
 9.8880000e+00   2.9703725e+01
 9.8934667e+00   3.1811362e+01
 9.8989333e+00   3.4649660e+01
 9.9044000e+00   3.8302440e+01
 9.9098667e+00   4.2636182e+01
 9.9153333e+00   4.7539298e+01
 9.9208000e+00   5.1200086e+01
 9.9262667e+00   5.3220329e+01
 9.9317333e+00   5.2382694e+01
 9.9372000e+00   4.9555460e+01
 9.9426667e+00   4.5068939e+01
 9.9481333e+00   4.0556973e+01
 9.9536000e+00   3.6771957e+01
 9.9590667e+00   3.3370519e+01
 9.9645333e+00   3.0846979e+01
 9.9700000e+00   2.8914968e+01
 9.9754667e+00   2.7650753e+01
 9.9809333e+00   2.6816375e+01
 9.9864000e+00   2.6371123e+01
 9.9918667e+00   2.6091259e+01
 9.9973333e+00   2.5938537e+01
 1.0002800e+01   2.5885081e+01
 1.0008267e+01   2.5764710e+01
 1.0013733e+01   2.5904394e+01
 1.0019200e+01   2.5829937e+01
 1.0024667e+01   2.6152050e+01
 1.0030133e+01   2.5843009e+01
 1.0035600e+01   2.7295078e+01
 1.0041067e+01   2.6003663e+01
 1.0046533e+01   2.5967375e+01
 1.0052000e+01   2.5887449e+01
 1.0057467e+01   2.5982549e+01
 1.0062933e+01   2.5899948e+01
 1.0068400e+01   2.6165607e+01
 1.0073867e+01   2.6265566e+01
 1.0079333e+01   2.6832776e+01
 1.0084800e+01   2.7421719e+01
 1.0090267e+01   2.8340283e+01
 1.0095733e+01   3.4230759e+01
 1.0101200e+01   3.3487047e+01
 1.0106667e+01   4.8273321e+01
 1.0112133e+01   4.3784989e+01
 1.0117600e+01   5.4698770e+01
 1.0123067e+01   6.8767200e+01
 1.0128533e+01   6.7692832e+01
 1.0134000e+01   8.8544127e+01
 1.0139467e+01   7.0328831e+01
 1.0144933e+01   7.9493444e+01
 1.0150400e+01   6.2710026e+01
 1.0155867e+01   6.8278304e+01
 1.0161333e+01   7.3966700e+01
 1.0166800e+01   5.8598933e+01
 1.0172267e+01   6.9749136e+01
 1.0177733e+01   5.3124963e+01
 1.0183200e+01   4.5466624e+01
 1.0188667e+01   4.1672116e+01
 1.0194133e+01   3.6945431e+01
 1.0199600e+01   3.4106302e+01
 1.0205067e+01   3.2263192e+01
 1.0210533e+01   2.8521258e+01
 1.0216000e+01   2.7282242e+01
 1.0221467e+01   2.6688832e+01
 1.0226933e+01   2.6272536e+01
 1.0232400e+01   2.6235217e+01
 1.0237867e+01   2.6220028e+01
 1.0243333e+01   2.6389797e+01
 1.0248800e+01   2.6415351e+01
 1.0254267e+01   2.6696571e+01
 1.0259733e+01   2.6965199e+01
 1.0265200e+01   2.7202676e+01
 1.0270667e+01   2.7497384e+01
 1.0276133e+01   2.7991638e+01
 1.0281600e+01   2.8277452e+01
 1.0287067e+01   2.8672779e+01
 1.0292533e+01   2.9177363e+01
 1.0298000e+01   2.9487923e+01
 1.0303467e+01   2.9804835e+01
 1.0308933e+01   3.0196978e+01
 1.0314400e+01   3.0187758e+01
 1.0319867e+01   3.0521371e+01
 1.0325333e+01   3.0304824e+01
 1.0330800e+01   3.0347473e+01
 1.0336267e+01   3.0041749e+01
 1.0341733e+01   2.9860820e+01
 1.0347200e+01   2.9544121e+01
 1.0352667e+01   2.9140960e+01
 1.0358133e+01   2.8978796e+01
 1.0363600e+01   2.8340475e+01
 1.0369067e+01   2.8200480e+01
 1.0374533e+01   2.7730710e+01
 1.0380000e+01   2.7509834e+01
 1.0385467e+01   2.7088489e+01
 1.0390933e+01   2.6849647e+01
 1.0396400e+01   2.6460017e+01
 1.0401867e+01   2.6258171e+01
 1.0407333e+01   2.6028048e+01
 1.0412800e+01   2.5866536e+01
 1.0418267e+01   2.5631773e+01
 1.0423733e+01   2.5570580e+01
 1.0429200e+01   2.5411623e+01
 1.0434667e+01   2.5342282e+01
 1.0440133e+01   2.5203468e+01
 1.0445600e+01   2.5166765e+01
 1.0451067e+01   2.5142726e+01
 1.0456533e+01   2.5093995e+01
 1.0462000e+01   2.5038905e+01
 1.0467467e+01   2.5044841e+01
 1.0472933e+01   2.4952409e+01
 1.0478400e+01   2.5016022e+01
 1.0483867e+01   2.4982352e+01
 1.0489333e+01   2.4930259e+01
 1.0494800e+01   2.4925947e+01
 1.0500267e+01   2.4915931e+01
 1.0505733e+01   2.4920448e+01
 1.0511200e+01   2.4916657e+01
 1.0516667e+01   2.4964374e+01
 1.0522133e+01   2.4998401e+01
 1.0527600e+01   2.4918774e+01
 1.0533067e+01   2.5005350e+01
 1.0538533e+01   2.4946322e+01
 1.0544000e+01   2.4932894e+01
 1.0549467e+01   2.4920256e+01
 1.0554933e+01   2.4980460e+01
 1.0560400e+01   2.4952769e+01
 1.0565867e+01   2.4989558e+01
 1.0571333e+01   2.5125128e+01
 1.0576800e+01   2.4998200e+01
 1.0582267e+01   2.5018935e+01
 1.0587733e+01   2.5098570e+01
 1.0593200e+01   2.5139031e+01
 1.0598667e+01   2.5122752e+01
 1.0604133e+01   2.5184880e+01
 1.0609600e+01   2.5317355e+01
 1.0615067e+01   2.5299556e+01
 1.0620533e+01   2.5416952e+01
 1.0626000e+01   2.5409526e+01
 1.0631467e+01   2.5456430e+01
 1.0636933e+01   2.5594754e+01
 1.0642400e+01   2.5801104e+01
 1.0647867e+01   2.6011964e+01
 1.0653333e+01   2.6490186e+01
 1.0658800e+01   2.7246478e+01
 1.0664267e+01   2.8308569e+01
 1.0669733e+01   3.0507286e+01
 1.0675200e+01   3.3096769e+01
 1.0680667e+01   3.7810862e+01
 1.0686133e+01   4.3309251e+01
 1.0691600e+01   4.9708077e+01
 1.0697067e+01   5.6544288e+01
 1.0702533e+01   6.2185769e+01
 1.0708000e+01   6.7515862e+01
 1.0713467e+01   7.0211704e+01
 1.0718933e+01   7.3185036e+01
 1.0724400e+01   7.3266599e+01
 1.0729867e+01   7.3135526e+01
 1.0735333e+01   6.9626221e+01
 1.0740800e+01   6.5583478e+01
 1.0746267e+01   5.8615842e+01
 1.0751733e+01   5.0236131e+01
 1.0757200e+01   4.2926630e+01
 1.0762667e+01   3.6850492e+01
 1.0768133e+01   3.2329606e+01
 1.0773600e+01   2.9629355e+01
 1.0779067e+01   2.7944102e+01
 1.0784533e+01   2.6784288e+01
 1.0790000e+01   2.6323846e+01
 1.0795467e+01   2.5909487e+01
 1.0800933e+01   2.5715132e+01
 1.0806400e+01   2.5636806e+01
 1.0811867e+01   2.5495955e+01
 1.0817333e+01   2.5459129e+01
 1.0822800e+01   2.5469531e+01
 1.0828267e+01   2.5439460e+01
 1.0833733e+01   2.5472642e+01
 1.0839200e+01   2.5385861e+01
 1.0844667e+01   2.5409037e+01
 1.0850133e+01   2.5407469e+01
 1.0855600e+01   2.5287837e+01
 1.0861067e+01   2.5334664e+01
 1.0866533e+01   2.5297694e+01
 1.0872000e+01   2.5336736e+01
 1.0877467e+01   2.5355845e+01
 1.0882933e+01   2.5382494e+01
 1.0888400e+01   2.5370438e+01
 1.0893867e+01   2.5391684e+01
 1.0899333e+01   2.5470737e+01
 1.0904800e+01   2.5338499e+01
 1.0910267e+01   2.5476317e+01
 1.0915733e+01   2.5435992e+01
 1.0921200e+01   2.5505982e+01
 1.0926667e+01   2.5625745e+01
 1.0932133e+01   2.5701651e+01
 1.0937600e+01   2.5932784e+01
 1.0943067e+01   2.6242957e+01
 1.0948533e+01   2.6719257e+01
 1.0954000e+01   2.7405655e+01
 1.0959467e+01   2.8216978e+01
 1.0964933e+01   2.9344056e+01
 1.0970400e+01   3.0549448e+01
 1.0975867e+01   3.1936899e+01
 1.0981333e+01   3.4091537e+01
 1.0986800e+01   3.5794761e+01
 1.0992267e+01   3.7500594e+01
 1.0997733e+01   3.8955100e+01
 1.1003200e+01   3.9821959e+01
 1.1008667e+01   3.9511206e+01
 1.1014133e+01   3.9381222e+01
 1.1019600e+01   3.7691348e+01
 1.1025067e+01   3.6763677e+01
 1.1030533e+01   3.4830748e+01
 1.1036000e+01   3.3454368e+01
 1.1041467e+01   3.1665066e+01
 1.1046933e+01   3.0165640e+01
 1.1052400e+01   2.8845045e+01
 1.1057867e+01   2.7821613e+01
 1.1063333e+01   2.7095784e+01
 1.1068800e+01   2.6678556e+01
 1.1074267e+01   2.6312698e+01
 1.1079733e+01   2.6116086e+01
 1.1085200e+01   2.6047171e+01
 1.1090667e+01   2.6030266e+01
 1.1096133e+01   2.6036462e+01
 1.1101600e+01   2.6060845e+01
 1.1107067e+01   2.6101172e+01
 1.1112533e+01   2.6058818e+01
 1.1118000e+01   2.6277241e+01
 1.1123467e+01   2.6222364e+01
 1.1128933e+01   2.6476247e+01
 1.1134400e+01   2.6627305e+01
 1.1139867e+01   2.7887032e+01
 1.1145333e+01   2.7318504e+01
 1.1150800e+01   2.8700281e+01
 1.1156267e+01   2.8034510e+01
 1.1161733e+01   2.7898851e+01
 1.1167200e+01   2.8657862e+01
 1.1172667e+01   2.9842403e+01
 1.1178133e+01   3.1723579e+01
 1.1183600e+01   3.4938049e+01
 1.1189067e+01   3.9859384e+01
 1.1194533e+01   4.4754736e+01
