PWDR ff_004329_sum_norm_dc_0.tif Azm= 352.fxye Bank 1
2-Theta Angle (Degrees)
Intensity
       1500
 3.0000000e+00   4.4485649e+01
 3.0054667e+00   4.4089786e+01
 3.0109333e+00   4.4027841e+01
 3.0164000e+00   4.3865030e+01
 3.0218667e+00   4.3475234e+01
 3.0273333e+00   4.3542088e+01
 3.0328000e+00   4.3293312e+01
 3.0382667e+00   4.3177276e+01
 3.0437333e+00   4.2975028e+01
 3.0492000e+00   4.3112258e+01
 3.0546667e+00   4.2818709e+01
 3.0601333e+00   4.2658579e+01
 3.0656000e+00   4.2496639e+01
 3.0710667e+00   4.2306803e+01
 3.0765333e+00   4.1972511e+01
 3.0820000e+00   4.1795727e+01
 3.0874667e+00   4.1359903e+01
 3.0929333e+00   4.1227771e+01
 3.0984000e+00   4.0963391e+01
 3.1038667e+00   4.0742468e+01
 3.1093333e+00   4.0460579e+01
 3.1148000e+00   4.0234018e+01
 3.1202667e+00   4.0019618e+01
 3.1257333e+00   3.9943666e+01
 3.1312000e+00   3.9713539e+01
 3.1366667e+00   3.9626254e+01
 3.1421333e+00   3.9428694e+01
 3.1476000e+00   3.9212420e+01
 3.1530667e+00   3.9131607e+01
 3.1585333e+00   3.8781910e+01
 3.1640000e+00   3.8825321e+01
 3.1694667e+00   3.8565065e+01
 3.1749333e+00   3.8502016e+01
 3.1804000e+00   3.8303022e+01
 3.1858667e+00   3.8157386e+01
 3.1913333e+00   3.8048412e+01
 3.1968000e+00   3.7771101e+01
 3.2022667e+00   3.7858996e+01
 3.2077333e+00   3.7630641e+01
 3.2132000e+00   3.7542245e+01
 3.2186667e+00   3.7399118e+01
 3.2241333e+00   3.7350601e+01
 3.2296000e+00   3.7086967e+01
 3.2350667e+00   3.7076832e+01
 3.2405333e+00   3.6922798e+01
 3.2460000e+00   3.6739266e+01
 3.2514667e+00   3.6589994e+01
 3.2569333e+00   3.6486932e+01
 3.2624000e+00   3.6462452e+01
 3.2678667e+00   3.6282187e+01
 3.2733333e+00   3.6235814e+01
 3.2788000e+00   3.6067505e+01
 3.2842667e+00   3.6143262e+01
 3.2897333e+00   3.5756589e+01
 3.2952000e+00   3.5828021e+01
 3.3006667e+00   3.5541000e+01
 3.3061333e+00   3.5599141e+01
 3.3116000e+00   3.5330661e+01
 3.3170667e+00   3.5397059e+01
 3.3225333e+00   3.5139271e+01
 3.3280000e+00   3.5202968e+01
 3.3334667e+00   3.4983152e+01
 3.3389333e+00   3.4979120e+01
 3.3444000e+00   3.4856480e+01
 3.3498667e+00   3.4790189e+01
 3.3553333e+00   3.4689694e+01
 3.3608000e+00   3.4581213e+01
 3.3662667e+00   3.4515550e+01
 3.3717333e+00   3.4321989e+01
 3.3772000e+00   3.4337440e+01
 3.3826667e+00   3.4269890e+01
 3.3881333e+00   3.4197027e+01
 3.3936000e+00   3.4127888e+01
 3.3990667e+00   3.4114993e+01
 3.4045333e+00   3.3958539e+01
 3.4100000e+00   3.4007989e+01
 3.4154667e+00   3.3846232e+01
 3.4209333e+00   3.3651109e+01
 3.4264000e+00   3.3733159e+01
 3.4318667e+00   3.3621062e+01
 3.4373333e+00   3.3576117e+01
 3.4428000e+00   3.3469053e+01
 3.4482667e+00   3.3480514e+01
 3.4537333e+00   3.3373107e+01
 3.4592000e+00   3.3368573e+01
 3.4646667e+00   3.3197796e+01
 3.4701333e+00   3.3232199e+01
 3.4756000e+00   3.3089507e+01
 3.4810667e+00   3.3067401e+01
 3.4865333e+00   3.3026590e+01
 3.4920000e+00   3.2938072e+01
 3.4974667e+00   3.2941901e+01
 3.5029333e+00   3.2878492e+01
 3.5084000e+00   3.2889557e+01
 3.5138667e+00   3.2778768e+01
 3.5193333e+00   3.2836007e+01
 3.5248000e+00   3.2770952e+01
 3.5302667e+00   3.2802587e+01
 3.5357333e+00   3.2719302e+01
 3.5412000e+00   3.2759434e+01
 3.5466667e+00   3.2633370e+01
 3.5521333e+00   3.2712668e+01
 3.5576000e+00   3.2720283e+01
 3.5630667e+00   3.2858127e+01
 3.5685333e+00   3.2893612e+01
 3.5740000e+00   3.2940513e+01
 3.5794667e+00   3.2900623e+01
 3.5849333e+00   3.2930986e+01
 3.5904000e+00   3.2839256e+01
 3.5958667e+00   3.2895241e+01
 3.6013333e+00   3.2910627e+01
 3.6068000e+00   3.2669342e+01
 3.6122667e+00   3.2659145e+01
 3.6177333e+00   3.2424994e+01
 3.6232000e+00   3.2437721e+01
 3.6286667e+00   3.2124086e+01
 3.6341333e+00   3.2235553e+01
 3.6396000e+00   3.2080858e+01
 3.6450667e+00   3.2081497e+01
 3.6505333e+00   3.1990017e+01
 3.6560000e+00   3.1972753e+01
 3.6614667e+00   3.1817467e+01
 3.6669333e+00   3.1918103e+01
 3.6724000e+00   3.1862348e+01
 3.6778667e+00   3.1842320e+01
 3.6833333e+00   3.1893535e+01
 3.6888000e+00   3.1806801e+01
 3.6942667e+00   3.1865537e+01
 3.6997333e+00   3.1652186e+01
 3.7052000e+00   3.1788782e+01
 3.7106667e+00   3.1664701e+01
 3.7161333e+00   3.1734573e+01
 3.7216000e+00   3.1669693e+01
 3.7270667e+00   3.1651009e+01
 3.7325333e+00   3.1613804e+01
 3.7380000e+00   3.1600678e+01
 3.7434667e+00   3.1588521e+01
 3.7489333e+00   3.1592029e+01
 3.7544000e+00   3.1613733e+01
 3.7598667e+00   3.1533467e+01
 3.7653333e+00   3.1578388e+01
 3.7708000e+00   3.1530806e+01
 3.7762667e+00   3.1602703e+01
 3.7817333e+00   3.1544140e+01
 3.7872000e+00   3.1523443e+01
 3.7926667e+00   3.1532784e+01
 3.7981333e+00   3.1572933e+01
 3.8036000e+00   3.1555857e+01
 3.8090667e+00   3.1626953e+01
 3.8145333e+00   3.1677955e+01
 3.8200000e+00   3.1617243e+01
 3.8254667e+00   3.1740233e+01
 3.8309333e+00   3.1677249e+01
 3.8364000e+00   3.1668960e+01
 3.8418667e+00   3.1668259e+01
 3.8473333e+00   3.1734149e+01
 3.8528000e+00   3.1697518e+01
 3.8582667e+00   3.1773896e+01
 3.8637333e+00   3.1758291e+01
 3.8692000e+00   3.1782814e+01
 3.8746667e+00   3.1704052e+01
 3.8801333e+00   3.1781515e+01
 3.8856000e+00   3.1842026e+01
 3.8910667e+00   3.1935965e+01
 3.8965333e+00   3.1934244e+01
 3.9020000e+00   3.2070693e+01
 3.9074667e+00   3.1955241e+01
 3.9129333e+00   3.2076939e+01
 3.9184000e+00   3.2086612e+01
 3.9238667e+00   3.2260147e+01
 3.9293333e+00   3.2416887e+01
 3.9348000e+00   3.2401322e+01
 3.9402667e+00   3.2680054e+01
 3.9457333e+00   3.2736965e+01
 3.9512000e+00   3.2930351e+01
 3.9566667e+00   3.2991837e+01
 3.9621333e+00   3.3257139e+01
 3.9676000e+00   3.3148298e+01
 3.9730667e+00   3.3241296e+01
 3.9785333e+00   3.3113918e+01
 3.9840000e+00   3.3137013e+01
 3.9894667e+00   3.3012085e+01
 3.9949333e+00   3.3174854e+01
 4.0004000e+00   3.3041782e+01
 4.0058667e+00   3.3184206e+01
 4.0113333e+00   3.3286913e+01
 4.0168000e+00   3.3372400e+01
 4.0222667e+00   3.3484644e+01
 4.0277333e+00   3.3739947e+01
 4.0332000e+00   3.3901440e+01
 4.0386667e+00   3.4056950e+01
 4.0441333e+00   3.4456313e+01
 4.0496000e+00   3.4591633e+01
 4.0550667e+00   3.5119372e+01
 4.0605333e+00   3.5585118e+01
 4.0660000e+00   3.6514021e+01
 4.0714667e+00   3.7476901e+01
 4.0769333e+00   3.9112582e+01
 4.0824000e+00   4.1128178e+01
 4.0878667e+00   4.4771583e+01
 4.0933333e+00   4.9510910e+01
 4.0988000e+00   5.7606792e+01
 4.1042667e+00   6.7954995e+01
 4.1097333e+00   8.4283555e+01
 4.1152000e+00   1.0226291e+02
 4.1206667e+00   1.3028125e+02
 4.1261333e+00   1.5525793e+02
 4.1316000e+00   1.9012349e+02
 4.1370667e+00   2.1516432e+02
 4.1425333e+00   2.4030601e+02
 4.1480000e+00   2.5342326e+02
 4.1534667e+00   2.5936154e+02
 4.1589333e+00   2.5132126e+02
 4.1644000e+00   2.3888151e+02
 4.1698667e+00   2.1133743e+02
 4.1753333e+00   1.8537241e+02
 4.1808000e+00   1.5335163e+02
 4.1862667e+00   1.2807111e+02
 4.1917333e+00   1.0200744e+02
 4.1972000e+00   8.3793855e+01
 4.2026667e+00   6.9327006e+01
 4.2081333e+00   5.8422744e+01
 4.2136000e+00   5.1357799e+01
 4.2190667e+00   4.6479413e+01
 4.2245333e+00   4.3369869e+01
 4.2300000e+00   4.1365164e+01
 4.2354667e+00   3.9893118e+01
 4.2409333e+00   3.8992034e+01
 4.2464000e+00   3.8141324e+01
 4.2518667e+00   3.7593391e+01
 4.2573333e+00   3.7168483e+01
 4.2628000e+00   3.6616455e+01
 4.2682667e+00   3.6446537e+01
 4.2737333e+00   3.6030753e+01
 4.2792000e+00   3.5907806e+01
 4.2846667e+00   3.5734184e+01
 4.2901333e+00   3.5613126e+01
 4.2956000e+00   3.5467731e+01
 4.3010667e+00   3.5528875e+01
 4.3065333e+00   3.5242100e+01
 4.3120000e+00   3.5339372e+01
 4.3174667e+00   3.5187802e+01
 4.3229333e+00   3.5138396e+01
 4.3284000e+00   3.4956400e+01
 4.3338667e+00   3.5047406e+01
 4.3393333e+00   3.4750823e+01
 4.3448000e+00   3.4850927e+01
 4.3502667e+00   3.4803395e+01
 4.3557333e+00   3.4811337e+01
 4.3612000e+00   3.4999402e+01
 4.3666667e+00   3.5073542e+01
 4.3721333e+00   3.5118497e+01
 4.3776000e+00   3.5052173e+01
 4.3830667e+00   3.5451317e+01
 4.3885333e+00   3.5366413e+01
 4.3940000e+00   3.5796439e+01
 4.3994667e+00   3.5886694e+01
 4.4049333e+00   3.6172312e+01
 4.4104000e+00   3.6442454e+01
 4.4158667e+00   3.7241270e+01
 4.4213333e+00   3.7729690e+01
 4.4268000e+00   3.8715435e+01
 4.4322667e+00   4.0226592e+01
 4.4377333e+00   4.2906075e+01
 4.4432000e+00   4.7170652e+01
 4.4486667e+00   5.4038984e+01
 4.4541333e+00   6.5062796e+01
 4.4596000e+00   8.2247731e+01
 4.4650667e+00   1.0447200e+02
 4.4705333e+00   1.3392340e+02
 4.4760000e+00   1.7793099e+02
 4.4814667e+00   2.1690077e+02
 4.4869333e+00   2.6383655e+02
 4.4924000e+00   3.0302563e+02
 4.4978667e+00   3.3853214e+02
 4.5033333e+00   3.5155539e+02
 4.5088000e+00   3.5433059e+02
 4.5142667e+00   3.4491813e+02
 4.5197333e+00   3.1142337e+02
 4.5252000e+00   2.6803150e+02
 4.5306667e+00   2.2605512e+02
 4.5361333e+00   1.7732197e+02
 4.5416000e+00   1.4478610e+02
 4.5470667e+00   1.1176796e+02
 4.5525333e+00   9.5445540e+01
 4.5580000e+00   7.7833077e+01
 4.5634667e+00   7.0389208e+01
 4.5689333e+00   6.3407571e+01
 4.5744000e+00   6.0634295e+01
 4.5798667e+00   5.8705851e+01
 4.5853333e+00   5.7444703e+01
 4.5908000e+00   5.7591010e+01
 4.5962667e+00   5.7533934e+01
 4.6017333e+00   5.7705531e+01
 4.6072000e+00   5.8272054e+01
 4.6126667e+00   5.8926479e+01
 4.6181333e+00   6.0601718e+01
 4.6236000e+00   6.1432015e+01
 4.6290667e+00   6.7613144e+01
 4.6345333e+00   6.6642265e+01
 4.6400000e+00   7.4301858e+01
 4.6454667e+00   7.6980857e+01
 4.6509333e+00   8.6847939e+01
 4.6564000e+00   1.0010786e+02
 4.6618667e+00   1.2300395e+02
 4.6673333e+00   1.5511964e+02
 4.6728000e+00   2.0193214e+02
 4.6782667e+00   2.6715053e+02
 4.6837333e+00   3.5426576e+02
 4.6892000e+00   4.5858980e+02
 4.6946667e+00   5.7588773e+02
 4.7001333e+00   7.0457903e+02
 4.7056000e+00   8.2730586e+02
 4.7110667e+00   9.3918523e+02
 4.7165333e+00   1.0283441e+03
 4.7220000e+00   1.0650614e+03
 4.7274667e+00   1.0689658e+03
 4.7329333e+00   1.0153304e+03
 4.7384000e+00   9.2955873e+02
 4.7438667e+00   7.9717344e+02
 4.7493333e+00   6.5922346e+02
 4.7548000e+00   5.3167185e+02
 4.7602667e+00   4.0184334e+02
 4.7657333e+00   3.0644149e+02
 4.7712000e+00   2.2484155e+02
 4.7766667e+00   1.6454317e+02
 4.7821333e+00   1.2116586e+02
 4.7876000e+00   9.6080486e+01
 4.7930667e+00   7.6232455e+01
 4.7985333e+00   6.4660659e+01
 4.8040000e+00   5.8290659e+01
 4.8094667e+00   5.2814765e+01
 4.8149333e+00   4.9463919e+01
 4.8204000e+00   4.7384691e+01
 4.8258667e+00   4.5556873e+01
 4.8313333e+00   4.4096593e+01
 4.8368000e+00   4.3329038e+01
 4.8422667e+00   4.2478148e+01
 4.8477333e+00   4.2233166e+01
 4.8532000e+00   4.1700082e+01
 4.8586667e+00   4.1241510e+01
 4.8641333e+00   4.0963380e+01
 4.8696000e+00   4.0053026e+01
 4.8750667e+00   3.9668081e+01
 4.8805333e+00   3.9233568e+01
 4.8860000e+00   3.8979160e+01
 4.8914667e+00   3.8868038e+01
 4.8969333e+00   3.8650286e+01
 4.9024000e+00   3.8376772e+01
 4.9078667e+00   3.8241154e+01
 4.9133333e+00   3.8333894e+01
 4.9188000e+00   3.8124167e+01
 4.9242667e+00   3.8408392e+01
 4.9297333e+00   3.8371746e+01
 4.9352000e+00   3.8348560e+01
 4.9406667e+00   3.8636731e+01
 4.9461333e+00   3.8766751e+01
 4.9516000e+00   3.9100970e+01
 4.9570667e+00   3.9442319e+01
 4.9625333e+00   3.9859403e+01
 4.9680000e+00   3.9855984e+01
 4.9734667e+00   4.0460341e+01
 4.9789333e+00   4.1124240e+01
 4.9844000e+00   4.1323052e+01
 4.9898667e+00   4.3242749e+01
 4.9953333e+00   4.6782718e+01
 5.0008000e+00   5.4007241e+01
 5.0062667e+00   5.4355144e+01
 5.0117333e+00   7.7143981e+01
 5.0172000e+00   7.4432919e+01
 5.0226667e+00   1.1263440e+02
 5.0281333e+00   1.3380538e+02
 5.0336000e+00   1.4004989e+02
 5.0390667e+00   2.1019070e+02
 5.0445333e+00   2.6603039e+02
 5.0500000e+00   2.4916800e+02
 5.0554667e+00   3.8691426e+02
 5.0609333e+00   3.0310615e+02
 5.0664000e+00   4.5046859e+02
 5.0718667e+00   3.4988004e+02
 5.0773333e+00   4.1418847e+02
 5.0828000e+00   3.7196426e+02
 5.0882667e+00   3.8288100e+02
 5.0937333e+00   3.1737272e+02
 5.0992000e+00   2.7126873e+02
 5.1046667e+00   2.5237261e+02
 5.1101333e+00   1.6162657e+02
 5.1156000e+00   1.1721328e+02
 5.1210667e+00   8.2670056e+01
 5.1265333e+00   6.8963948e+01
 5.1320000e+00   5.7358398e+01
 5.1374667e+00   5.1381657e+01
 5.1429333e+00   4.9055778e+01
 5.1484000e+00   4.7906130e+01
 5.1538667e+00   4.8520807e+01
 5.1593333e+00   4.8579969e+01
 5.1648000e+00   4.9429374e+01
 5.1702667e+00   4.8932994e+01
 5.1757333e+00   4.9930513e+01
 5.1812000e+00   4.8832373e+01
 5.1866667e+00   4.8514600e+01
 5.1921333e+00   4.7190419e+01
 5.1976000e+00   4.5969836e+01
 5.2030667e+00   4.4334982e+01
 5.2085333e+00   4.2968715e+01
 5.2140000e+00   4.0994521e+01
 5.2194667e+00   4.0366829e+01
 5.2249333e+00   3.8035329e+01
 5.2304000e+00   3.7305785e+01
 5.2358667e+00   3.5808999e+01
 5.2413333e+00   3.5206898e+01
 5.2468000e+00   3.4307712e+01
 5.2522667e+00   3.4059366e+01
 5.2577333e+00   3.3510154e+01
 5.2632000e+00   3.3398888e+01
 5.2686667e+00   3.3142956e+01
 5.2741333e+00   3.3015656e+01
 5.2796000e+00   3.2902048e+01
 5.2850667e+00   3.2645182e+01
 5.2905333e+00   3.2497393e+01
 5.2960000e+00   3.2289369e+01
 5.3014667e+00   3.2049373e+01
 5.3069333e+00   3.2139244e+01
 5.3124000e+00   3.1750871e+01
 5.3178667e+00   3.1836530e+01
 5.3233333e+00   3.1695915e+01
 5.3288000e+00   3.1642707e+01
 5.3342667e+00   3.1623514e+01
 5.3397333e+00   3.1568317e+01
 5.3452000e+00   3.1497905e+01
 5.3506667e+00   3.1387604e+01
 5.3561333e+00   3.1373658e+01
 5.3616000e+00   3.1271220e+01
 5.3670667e+00   3.1199501e+01
 5.3725333e+00   3.1150092e+01
 5.3780000e+00   3.0972101e+01
 5.3834667e+00   3.0828416e+01
 5.3889333e+00   3.0892371e+01
 5.3944000e+00   3.0667434e+01
 5.3998667e+00   3.0682248e+01
 5.4053333e+00   3.0469431e+01
 5.4108000e+00   3.0478513e+01
 5.4162667e+00   3.0324688e+01
 5.4217333e+00   3.0401403e+01
 5.4272000e+00   3.0226124e+01
 5.4326667e+00   3.0259777e+01
 5.4381333e+00   3.0117370e+01
 5.4436000e+00   3.0255222e+01
 5.4490667e+00   3.0137323e+01
 5.4545333e+00   3.0202307e+01
 5.4600000e+00   2.9965320e+01
 5.4654667e+00   3.0037999e+01
 5.4709333e+00   2.9966881e+01
 5.4764000e+00   3.0003870e+01
 5.4818667e+00   3.0011764e+01
 5.4873333e+00   2.9908991e+01
 5.4928000e+00   2.9930790e+01
 5.4982667e+00   2.9819336e+01
 5.5037333e+00   2.9863421e+01
 5.5092000e+00   2.9767576e+01
 5.5146667e+00   2.9864935e+01
 5.5201333e+00   2.9754393e+01
 5.5256000e+00   2.9734000e+01
 5.5310667e+00   2.9790906e+01
 5.5365333e+00   2.9753614e+01
 5.5420000e+00   2.9776398e+01
 5.5474667e+00   2.9723784e+01
 5.5529333e+00   2.9717268e+01
 5.5584000e+00   2.9755354e+01
 5.5638667e+00   2.9732378e+01
 5.5693333e+00   3.0032876e+01
 5.5748000e+00   2.9862263e+01
 5.5802667e+00   3.0325796e+01
 5.5857333e+00   3.0356571e+01
 5.5912000e+00   2.9873871e+01
 5.5966667e+00   2.9956141e+01
 5.6021333e+00   2.9937126e+01
 5.6076000e+00   2.9932918e+01
 5.6130667e+00   2.9904478e+01
 5.6185333e+00   2.9963992e+01
 5.6240000e+00   2.9858333e+01
 5.6294667e+00   2.9867256e+01
 5.6349333e+00   2.9898911e+01
 5.6404000e+00   2.9867949e+01
 5.6458667e+00   2.9844123e+01
 5.6513333e+00   2.9948357e+01
 5.6568000e+00   2.9936758e+01
 5.6622667e+00   2.9822118e+01
 5.6677333e+00   3.0026096e+01
 5.6732000e+00   2.9899840e+01
 5.6786667e+00   3.0104318e+01
 5.6841333e+00   3.0057374e+01
 5.6896000e+00   3.0245556e+01
 5.6950667e+00   3.0199103e+01
 5.7005333e+00   3.0350754e+01
 5.7060000e+00   3.0373902e+01
 5.7114667e+00   3.0514802e+01
 5.7169333e+00   3.0587600e+01
 5.7224000e+00   3.0735304e+01
 5.7278667e+00   3.0920627e+01
 5.7333333e+00   3.1046145e+01
 5.7388000e+00   3.1192404e+01
 5.7442667e+00   3.1401162e+01
 5.7497333e+00   3.1715157e+01
 5.7552000e+00   3.1968207e+01
 5.7606667e+00   3.2506744e+01
 5.7661333e+00   3.2995020e+01
 5.7716000e+00   3.3427519e+01
 5.7770667e+00   3.5701225e+01
 5.7825333e+00   3.6704699e+01
 5.7880000e+00   4.6025038e+01
 5.7934667e+00   4.7591505e+01
 5.7989333e+00   6.3167504e+01
 5.8044000e+00   5.6304013e+01
 5.8098667e+00   8.3053133e+01
 5.8153333e+00   9.3933091e+01
 5.8208000e+00   1.1130734e+02
 5.8262667e+00   1.1375950e+02
 5.8317333e+00   1.7138637e+02
 5.8372000e+00   1.5858589e+02
 5.8426667e+00   2.0946117e+02
 5.8481333e+00   2.4065014e+02
 5.8536000e+00   2.2261132e+02
 5.8590667e+00   2.1642000e+02
 5.8645333e+00   2.3100956e+02
 5.8700000e+00   1.8447708e+02
 5.8754667e+00   1.8481600e+02
 5.8809333e+00   1.5633531e+02
 5.8864000e+00   1.5196941e+02
 5.8918667e+00   1.1702901e+02
 5.8973333e+00   1.1105036e+02
 5.9028000e+00   7.0463560e+01
 5.9082667e+00   7.4972279e+01
 5.9137333e+00   4.4515316e+01
 5.9192000e+00   4.2839405e+01
 5.9246667e+00   3.5781718e+01
 5.9301333e+00   3.4117525e+01
 5.9356000e+00   3.3125617e+01
 5.9410667e+00   3.2539431e+01
 5.9465333e+00   3.2311875e+01
 5.9520000e+00   3.1622887e+01
 5.9574667e+00   3.1820118e+01
 5.9629333e+00   3.1490341e+01
 5.9684000e+00   3.1474542e+01
 5.9738667e+00   3.1305199e+01
 5.9793333e+00   3.1539455e+01
 5.9848000e+00   3.1507462e+01
 5.9902667e+00   3.1364676e+01
 5.9957333e+00   3.1464717e+01
 6.0012000e+00   3.1388248e+01
 6.0066667e+00   3.1472059e+01
 6.0121333e+00   3.1698990e+01
 6.0176000e+00   3.1656120e+01
 6.0230667e+00   3.1818516e+01
 6.0285333e+00   3.2138074e+01
 6.0340000e+00   3.2323490e+01
 6.0394667e+00   3.2912742e+01
 6.0449333e+00   3.3302874e+01
 6.0504000e+00   3.4373646e+01
 6.0558667e+00   3.5606832e+01
 6.0613333e+00   3.7532287e+01
 6.0668000e+00   4.0599878e+01
 6.0722667e+00   4.4784870e+01
 6.0777333e+00   5.0806973e+01
 6.0832000e+00   5.9743570e+01
 6.0886667e+00   7.2214828e+01
 6.0941333e+00   8.5631515e+01
 6.0996000e+00   1.0553370e+02
 6.1050667e+00   1.2283052e+02
 6.1105333e+00   1.4534050e+02
 6.1160000e+00   1.6067751e+02
 6.1214667e+00   1.7665050e+02
 6.1269333e+00   1.8206882e+02
 6.1324000e+00   1.8646269e+02
 6.1378667e+00   1.7595207e+02
 6.1433333e+00   1.6933867e+02
 6.1488000e+00   1.4812551e+02
 6.1542667e+00   1.3276744e+02
 6.1597333e+00   1.1096942e+02
 6.1652000e+00   9.4311745e+01
 6.1706667e+00   7.8279200e+01
 6.1761333e+00   6.7012401e+01
 6.1816000e+00   5.5507899e+01
 6.1870667e+00   4.9441843e+01
 6.1925333e+00   4.3620232e+01
 6.1980000e+00   3.9933888e+01
 6.2034667e+00   3.7151099e+01
 6.2089333e+00   3.5498422e+01
 6.2144000e+00   3.4114248e+01
 6.2198667e+00   3.3187147e+01
 6.2253333e+00   3.2620546e+01
 6.2308000e+00   3.1871096e+01
 6.2362667e+00   3.1597424e+01
 6.2417333e+00   3.1135418e+01
 6.2472000e+00   3.1012547e+01
 6.2526667e+00   3.0705516e+01
 6.2581333e+00   3.0584092e+01
 6.2636000e+00   3.0327947e+01
 6.2690667e+00   3.0240738e+01
 6.2745333e+00   3.0086722e+01
 6.2800000e+00   3.0000886e+01
 6.2854667e+00   2.9906571e+01
 6.2909333e+00   2.9825405e+01
 6.2964000e+00   2.9781217e+01
 6.3018667e+00   2.9691268e+01
 6.3073333e+00   2.9574858e+01
 6.3128000e+00   2.9501697e+01
 6.3182667e+00   2.9508894e+01
 6.3237333e+00   2.9416682e+01
 6.3292000e+00   2.9421575e+01
 6.3346667e+00   2.9299078e+01
 6.3401333e+00   2.9481832e+01
 6.3456000e+00   2.9257842e+01
 6.3510667e+00   2.9425380e+01
 6.3565333e+00   2.9381988e+01
 6.3620000e+00   2.9405165e+01
 6.3674667e+00   2.9473879e+01
 6.3729333e+00   2.9429529e+01
 6.3784000e+00   2.9462363e+01
 6.3838667e+00   2.9426959e+01
 6.3893333e+00   2.9673659e+01
 6.3948000e+00   2.9411323e+01
 6.4002667e+00   2.9494955e+01
 6.4057333e+00   2.9466926e+01
 6.4112000e+00   2.9539306e+01
 6.4166667e+00   2.9442573e+01
 6.4221333e+00   2.9561899e+01
 6.4276000e+00   2.9421335e+01
 6.4330667e+00   2.9565455e+01
 6.4385333e+00   2.9523055e+01
 6.4440000e+00   2.9660104e+01
 6.4494667e+00   2.9656632e+01
 6.4549333e+00   2.9699652e+01
 6.4604000e+00   2.9629515e+01
 6.4658667e+00   2.9687489e+01
 6.4713333e+00   2.9667260e+01
 6.4768000e+00   2.9686614e+01
 6.4822667e+00   2.9692630e+01
 6.4877333e+00   2.9662295e+01
 6.4932000e+00   2.9637665e+01
 6.4986667e+00   2.9663699e+01
 6.5041333e+00   2.9557584e+01
 6.5096000e+00   2.9613151e+01
 6.5150667e+00   2.9744472e+01
 6.5205333e+00   2.9609248e+01
 6.5260000e+00   2.9698994e+01
 6.5314667e+00   2.9611859e+01
 6.5369333e+00   2.9764065e+01
 6.5424000e+00   2.9533052e+01
 6.5478667e+00   2.9856572e+01
 6.5533333e+00   2.9841025e+01
 6.5588000e+00   3.0442548e+01
 6.5642667e+00   3.0508472e+01
 6.5697333e+00   2.9717854e+01
 6.5752000e+00   2.9603227e+01
 6.5806667e+00   2.9366858e+01
 6.5861333e+00   2.9322415e+01
 6.5916000e+00   2.9359019e+01
 6.5970667e+00   2.9205650e+01
 6.6025333e+00   2.9610659e+01
 6.6080000e+00   2.9407151e+01
 6.6134667e+00   2.9108450e+01
 6.6189333e+00   2.9270096e+01
 6.6244000e+00   2.9104081e+01
 6.6298667e+00   2.9197781e+01
 6.6353333e+00   2.9068065e+01
 6.6408000e+00   2.9124772e+01
 6.6462667e+00   2.9034170e+01
 6.6517333e+00   2.9056038e+01
 6.6572000e+00   2.9016598e+01
 6.6626667e+00   2.9023460e+01
 6.6681333e+00   2.9069221e+01
 6.6736000e+00   2.9090547e+01
 6.6790667e+00   2.9055824e+01
 6.6845333e+00   2.9054633e+01
 6.6900000e+00   2.9041536e+01
 6.6954667e+00   2.9003948e+01
 6.7009333e+00   2.9060754e+01
 6.7064000e+00   2.9020431e+01
 6.7118667e+00   2.9104229e+01
 6.7173333e+00   2.9041806e+01
 6.7228000e+00   2.9135858e+01
 6.7282667e+00   2.8971565e+01
 6.7337333e+00   2.9124259e+01
 6.7392000e+00   2.9023617e+01
 6.7446667e+00   2.9132436e+01
 6.7501333e+00   2.9007019e+01
 6.7556000e+00   2.9150683e+01
 6.7610667e+00   2.9042941e+01
 6.7665333e+00   2.9164304e+01
 6.7720000e+00   2.9091169e+01
 6.7774667e+00   2.9159067e+01
 6.7829333e+00   2.9223112e+01
 6.7884000e+00   2.9293900e+01
 6.7938667e+00   2.9305145e+01
 6.7993333e+00   2.9192378e+01
 6.8048000e+00   2.9363410e+01
 6.8102667e+00   2.9228473e+01
 6.8157333e+00   2.9379399e+01
 6.8212000e+00   2.9313754e+01
 6.8266667e+00   2.9458466e+01
 6.8321333e+00   2.9314910e+01
 6.8376000e+00   2.9461408e+01
 6.8430667e+00   2.9423516e+01
 6.8485333e+00   2.9554730e+01
 6.8540000e+00   2.9455388e+01
 6.8594667e+00   2.9651751e+01
 6.8649333e+00   2.9620314e+01
 6.8704000e+00   2.9705627e+01
 6.8758667e+00   2.9624139e+01
 6.8813333e+00   2.9666240e+01
 6.8868000e+00   2.9662100e+01
 6.8922667e+00   2.9757503e+01
 6.8977333e+00   2.9724297e+01
 6.9032000e+00   2.9754295e+01
 6.9086667e+00   2.9895619e+01
 6.9141333e+00   2.9770230e+01
 6.9196000e+00   2.9930044e+01
 6.9250667e+00   2.9858447e+01
 6.9305333e+00   2.9949712e+01
 6.9360000e+00   2.9987047e+01
 6.9414667e+00   3.0205294e+01
 6.9469333e+00   3.0112654e+01
 6.9524000e+00   3.0299573e+01
 6.9578667e+00   3.0351357e+01
 6.9633333e+00   3.0395420e+01
 6.9688000e+00   3.0422311e+01
 6.9742667e+00   3.0519836e+01
 6.9797333e+00   3.0557644e+01
 6.9852000e+00   3.0620229e+01
 6.9906667e+00   3.0747529e+01
 6.9961333e+00   3.0777468e+01
 7.0016000e+00   3.0918943e+01
 7.0070667e+00   3.0988970e+01
 7.0125333e+00   3.1112477e+01
 7.0180000e+00   3.1120195e+01
 7.0234667e+00   3.1376000e+01
 7.0289333e+00   3.1243507e+01
 7.0344000e+00   3.1572434e+01
 7.0398667e+00   3.1637718e+01
 7.0453333e+00   3.1826472e+01
 7.0508000e+00   3.1975629e+01
 7.0562667e+00   3.2225293e+01
 7.0617333e+00   3.2397300e+01
 7.0672000e+00   3.2687497e+01
 7.0726667e+00   3.2972322e+01
 7.0781333e+00   3.3364158e+01
 7.0836000e+00   3.3881168e+01
 7.0890667e+00   3.4406716e+01
 7.0945333e+00   3.5154642e+01
 7.1000000e+00   3.5992207e+01
 7.1054667e+00   3.7248287e+01
 7.1109333e+00   3.8599591e+01
 7.1164000e+00   4.0683344e+01
 7.1218667e+00   4.3309765e+01
 7.1273333e+00   4.6760894e+01
 7.1328000e+00   5.1366260e+01
 7.1382667e+00   5.6902928e+01
 7.1437333e+00   6.4856800e+01
 7.1492000e+00   7.3682387e+01
 7.1546667e+00   8.5470752e+01
 7.1601333e+00   9.7825220e+01
 7.1656000e+00   1.1304653e+02
 7.1710667e+00   1.2685773e+02
 7.1765333e+00   1.4129758e+02
 7.1820000e+00   1.5281742e+02
 7.1874667e+00   1.6287001e+02
 7.1929333e+00   1.6700775e+02
 7.1984000e+00   1.6884141e+02
 7.2038667e+00   1.6548772e+02
 7.2093333e+00   1.5789634e+02
 7.2148000e+00   1.4743017e+02
 7.2202667e+00   1.3565994e+02
 7.2257333e+00   1.2014435e+02
 7.2312000e+00   1.0690618e+02
 7.2366667e+00   9.2420115e+01
 7.2421333e+00   8.0037169e+01
 7.2476000e+00   6.9329220e+01
 7.2530667e+00   6.0582170e+01
 7.2585333e+00   5.3279128e+01
 7.2640000e+00   4.8384320e+01
 7.2694667e+00   4.4084703e+01
 7.2749333e+00   4.1290083e+01
 7.2804000e+00   3.9107130e+01
 7.2858667e+00   3.7578031e+01
 7.2913333e+00   3.6306188e+01
 7.2968000e+00   3.5504040e+01
 7.3022667e+00   3.4991856e+01
 7.3077333e+00   3.4430031e+01
 7.3132000e+00   3.4203379e+01
 7.3186667e+00   3.3839227e+01
 7.3241333e+00   3.3676519e+01
 7.3296000e+00   3.3328430e+01
 7.3350667e+00   3.3315619e+01
 7.3405333e+00   3.3020264e+01
 7.3460000e+00   3.3014810e+01
 7.3514667e+00   3.2796350e+01
 7.3569333e+00   3.2692154e+01
 7.3624000e+00   3.2502904e+01
 7.3678667e+00   3.2471209e+01
 7.3733333e+00   3.2286972e+01
 7.3788000e+00   3.2217573e+01
 7.3842667e+00   3.2006978e+01
 7.3897333e+00   3.1944830e+01
 7.3952000e+00   3.1794218e+01
 7.4006667e+00   3.1777169e+01
 7.4061333e+00   3.1665054e+01
 7.4116000e+00   3.1558446e+01
 7.4170667e+00   3.1549049e+01
 7.4225333e+00   3.1451049e+01
 7.4280000e+00   3.1435831e+01
 7.4334667e+00   3.1359223e+01
 7.4389333e+00   3.1389891e+01
 7.4444000e+00   3.1197696e+01
 7.4498667e+00   3.1327373e+01
 7.4553333e+00   3.1184092e+01
 7.4608000e+00   3.1276105e+01
 7.4662667e+00   3.1312527e+01
 7.4717333e+00   3.1393116e+01
 7.4772000e+00   3.2099061e+01
 7.4826667e+00   3.2246625e+01
 7.4881333e+00   3.1196229e+01
 7.4936000e+00   3.1561486e+01
 7.4990667e+00   3.1323624e+01
 7.5045333e+00   3.1209183e+01
 7.5100000e+00   3.1212441e+01
 7.5154667e+00   3.1244165e+01
 7.5209333e+00   3.1340919e+01
 7.5264000e+00   3.1214957e+01
 7.5318667e+00   3.1417303e+01
 7.5373333e+00   3.1190950e+01
 7.5428000e+00   3.1290521e+01
 7.5482667e+00   3.1257675e+01
 7.5537333e+00   3.1431228e+01
 7.5592000e+00   3.1325747e+01
 7.5646667e+00   3.1422514e+01
 7.5701333e+00   3.1373914e+01
 7.5756000e+00   3.1492841e+01
 7.5810667e+00   3.1594384e+01
 7.5865333e+00   3.1547094e+01
 7.5920000e+00   3.1614033e+01
 7.5974667e+00   3.1760000e+01
 7.6029333e+00   3.1707685e+01
 7.6084000e+00   3.1630761e+01
 7.6138667e+00   3.1577333e+01
 7.6193333e+00   3.1682337e+01
 7.6248000e+00   3.1540682e+01
 7.6302667e+00   3.1469261e+01
 7.6357333e+00   3.1470495e+01
 7.6412000e+00   3.1438133e+01
 7.6466667e+00   3.1462408e+01
 7.6521333e+00   3.1393905e+01
 7.6576000e+00   3.1483897e+01
 7.6630667e+00   3.1380340e+01
 7.6685333e+00   3.1516036e+01
 7.6740000e+00   3.1477371e+01
 7.6794667e+00   3.1522418e+01
 7.6849333e+00   3.1612294e+01
 7.6904000e+00   3.1618399e+01
 7.6958667e+00   3.1534096e+01
 7.7013333e+00   3.1724616e+01
 7.7068000e+00   3.1683811e+01
 7.7122667e+00   3.1708672e+01
 7.7177333e+00   3.1852589e+01
 7.7232000e+00   3.1732799e+01
 7.7286667e+00   3.1917672e+01
 7.7341333e+00   3.1797323e+01
 7.7396000e+00   3.2035613e+01
 7.7450667e+00   3.1892517e+01
 7.7505333e+00   3.2179918e+01
 7.7560000e+00   3.2092596e+01
 7.7614667e+00   3.2313449e+01
 7.7669333e+00   3.2305796e+01
 7.7724000e+00   3.2481350e+01
 7.7778667e+00   3.2481662e+01
 7.7833333e+00   3.2715913e+01
 7.7888000e+00   3.2684378e+01
 7.7942667e+00   3.2973280e+01
 7.7997333e+00   3.3073489e+01
 7.8052000e+00   3.3306755e+01
 7.8106667e+00   3.3477215e+01
 7.8161333e+00   3.3725903e+01
 7.8216000e+00   3.4025384e+01
 7.8270667e+00   3.4434907e+01
 7.8325333e+00   3.4836532e+01
 7.8380000e+00   3.5244198e+01
 7.8434667e+00   3.6037772e+01
 7.8489333e+00   3.6827372e+01
 7.8544000e+00   3.8155110e+01
 7.8598667e+00   4.0478998e+01
 7.8653333e+00   4.2713335e+01
 7.8708000e+00   4.4840873e+01
 7.8762667e+00   4.9095682e+01
 7.8817333e+00   5.4259197e+01
 7.8872000e+00   6.2343156e+01
 7.8926667e+00   7.3843145e+01
 7.8981333e+00   8.6889405e+01
 7.9036000e+00   1.0468308e+02
 7.9090667e+00   1.2365939e+02
 7.9145333e+00   1.4309180e+02
 7.9200000e+00   1.6276626e+02
 7.9254667e+00   1.7786024e+02
 7.9309333e+00   1.9060602e+02
 7.9364000e+00   1.9403896e+02
 7.9418667e+00   1.9591589e+02
 7.9473333e+00   1.8677742e+02
 7.9528000e+00   1.7653107e+02
 7.9582667e+00   1.5967704e+02
 7.9637333e+00   1.4215753e+02
 7.9692000e+00   1.2332825e+02
 7.9746667e+00   1.0535091e+02
 7.9801333e+00   9.0310604e+01
 7.9856000e+00   7.6533357e+01
 7.9910667e+00   6.6065854e+01
 7.9965333e+00   5.7780387e+01
 8.0020000e+00   5.1778967e+01
 8.0074667e+00   4.7025515e+01
 8.0129333e+00   4.4172750e+01
 8.0184000e+00   4.1680350e+01
 8.0238667e+00   4.0179039e+01
 8.0293333e+00   3.9098187e+01
 8.0348000e+00   3.7977895e+01
 8.0402667e+00   3.7415668e+01
 8.0457333e+00   3.6754665e+01
 8.0512000e+00   3.6600225e+01
 8.0566667e+00   3.6026207e+01
 8.0621333e+00   3.6090203e+01
 8.0676000e+00   3.5582923e+01
 8.0730667e+00   3.5634088e+01
 8.0785333e+00   3.5332981e+01
 8.0840000e+00   3.5389293e+01
 8.0894667e+00   3.5185153e+01
 8.0949333e+00   3.5236606e+01
 8.1004000e+00   3.5189474e+01
 8.1058667e+00   3.5204837e+01
 8.1113333e+00   3.5868110e+01
 8.1168000e+00   3.5184049e+01
 8.1222667e+00   4.0009880e+01
 8.1277333e+00   3.5313235e+01
 8.1332000e+00   3.7582170e+01
 8.1386667e+00   3.6090771e+01
 8.1441333e+00   3.5696580e+01
 8.1496000e+00   3.5584626e+01
 8.1550667e+00   3.5935997e+01
 8.1605333e+00   3.5389730e+01
 8.1660000e+00   3.6141158e+01
 8.1714667e+00   3.5598448e+01
 8.1769333e+00   3.6405532e+01
 8.1824000e+00   3.6118158e+01
 8.1878667e+00   3.6672415e+01
 8.1933333e+00   3.6525654e+01
 8.1988000e+00   3.7171730e+01
 8.2042667e+00   3.7079199e+01
 8.2097333e+00   3.8144482e+01
 8.2152000e+00   3.8490641e+01
 8.2206667e+00   4.0224789e+01
 8.2261333e+00   4.3310703e+01
 8.2316000e+00   4.6947470e+01
 8.2370667e+00   6.3472807e+01
 8.2425333e+00   7.8275352e+01
 8.2480000e+00   1.1780947e+02
 8.2534667e+00   1.1121853e+02
 8.2589333e+00   1.6101085e+02
 8.2644000e+00   1.2196058e+02
 8.2698667e+00   1.5334234e+02
 8.2753333e+00   1.3233300e+02
 8.2808000e+00   1.6236868e+02
 8.2862667e+00   1.4482460e+02
 8.2917333e+00   1.7756360e+02
 8.2972000e+00   1.4217611e+02
 8.3026667e+00   1.9165861e+02
 8.3081333e+00   1.2874301e+02
 8.3136000e+00   1.8113299e+02
 8.3190667e+00   1.3959408e+02
 8.3245333e+00   1.4283937e+02
 8.3300000e+00   9.2756856e+01
 8.3354667e+00   1.1011188e+02
 8.3409333e+00   6.4578654e+01
 8.3464000e+00   8.2395913e+01
 8.3518667e+00   5.2916495e+01
 8.3573333e+00   5.0331290e+01
 8.3628000e+00   4.6000189e+01
 8.3682667e+00   4.3269582e+01
 8.3737333e+00   4.2811782e+01
 8.3792000e+00   4.1396762e+01
 8.3846667e+00   4.1693316e+01
 8.3901333e+00   4.0866824e+01
 8.3956000e+00   4.1929642e+01
 8.4010667e+00   4.1816805e+01
 8.4065333e+00   4.3200589e+01
 8.4120000e+00   4.4144742e+01
 8.4174667e+00   4.6202952e+01
 8.4229333e+00   4.8527000e+01
 8.4284000e+00   5.2220407e+01
 8.4338667e+00   5.6501069e+01
 8.4393333e+00   6.3146476e+01
 8.4448000e+00   7.0789259e+01
 8.4502667e+00   8.0572128e+01
 8.4557333e+00   9.2760192e+01
 8.4612000e+00   1.0601804e+02
 8.4666667e+00   1.2083196e+02
 8.4721333e+00   1.3561055e+02
 8.4776000e+00   1.4956429e+02
 8.4830667e+00   1.6114780e+02
 8.4885333e+00   1.7085008e+02
 8.4940000e+00   1.7532115e+02
 8.4994667e+00   1.7579547e+02
 8.5049333e+00   1.7073689e+02
 8.5104000e+00   1.6311922e+02
 8.5158667e+00   1.5108956e+02
 8.5213333e+00   1.3907242e+02
 8.5268000e+00   1.2403800e+02
 8.5322667e+00   1.1262564e+02
 8.5377333e+00   9.9446270e+01
 8.5432000e+00   9.1027002e+01
 8.5486667e+00   8.3370294e+01
 8.5541333e+00   7.9876372e+01
 8.5596000e+00   7.7824695e+01
 8.5650667e+00   7.9021897e+01
 8.5705333e+00   8.2622668e+01
 8.5760000e+00   8.7672495e+01
 8.5814667e+00   9.5254188e+01
 8.5869333e+00   1.0189470e+02
 8.5924000e+00   1.1147334e+02
 8.5978667e+00   1.1704337e+02
 8.6033333e+00   1.2614613e+02
 8.6088000e+00   1.2877197e+02
 8.6142667e+00   1.3265590e+02
 8.6197333e+00   1.3116231e+02
 8.6252000e+00   1.2911640e+02
 8.6306667e+00   1.2248798e+02
 8.6361333e+00   1.1562323e+02
 8.6416000e+00   1.0584322e+02
 8.6470667e+00   9.6640445e+01
 8.6525333e+00   8.6205799e+01
 8.6580000e+00   7.7036477e+01
 8.6634667e+00   6.8985507e+01
 8.6689333e+00   6.1653199e+01
 8.6744000e+00   5.5238770e+01
 8.6798667e+00   5.0567843e+01
 8.6853333e+00   4.7076413e+01
 8.6908000e+00   4.3762830e+01
 8.6962667e+00   4.2008923e+01
 8.7017333e+00   3.9918245e+01
 8.7072000e+00   3.8893089e+01
 8.7126667e+00   3.7564748e+01
 8.7181333e+00   3.7219516e+01
 8.7236000e+00   3.6173452e+01
 8.7290667e+00   3.6094648e+01
 8.7345333e+00   3.5298798e+01
 8.7400000e+00   3.5238851e+01
 8.7454667e+00   3.4722027e+01
 8.7509333e+00   3.4860013e+01
 8.7564000e+00   3.4370560e+01
 8.7618667e+00   3.4488831e+01
 8.7673333e+00   3.4044755e+01
 8.7728000e+00   3.4350542e+01
 8.7782667e+00   3.3749493e+01
 8.7837333e+00   3.3723721e+01
 8.7892000e+00   3.3452679e+01
 8.7946667e+00   3.3386736e+01
 8.8001333e+00   3.3316736e+01
 8.8056000e+00   3.3065584e+01
 8.8110667e+00   3.3090402e+01
 8.8165333e+00   3.2835285e+01
 8.8220000e+00   3.2917899e+01
 8.8274667e+00   3.2582232e+01
 8.8329333e+00   3.2658719e+01
 8.8384000e+00   3.2408057e+01
 8.8438667e+00   3.2509021e+01
 8.8493333e+00   3.2256224e+01
 8.8548000e+00   3.2404611e+01
 8.8602667e+00   3.2087849e+01
 8.8657333e+00   3.2266138e+01
 8.8712000e+00   3.1964484e+01
 8.8766667e+00   3.2175052e+01
 8.8821333e+00   3.1959457e+01
 8.8876000e+00   3.2212529e+01
 8.8930667e+00   3.1944948e+01
 8.8985333e+00   3.2157387e+01
 8.9040000e+00   3.2079903e+01
 8.9094667e+00   3.2191491e+01
 8.9149333e+00   3.2246796e+01
 8.9204000e+00   3.2376483e+01
 8.9258667e+00   3.2554241e+01
 8.9313333e+00   3.2680884e+01
 8.9368000e+00   3.3032559e+01
 8.9422667e+00   3.3307801e+01
 8.9477333e+00   3.3824614e+01
 8.9532000e+00   3.4231452e+01
 8.9586667e+00   3.5195380e+01
 8.9641333e+00   3.5900739e+01
 8.9696000e+00   3.7452203e+01
 8.9750667e+00   3.8666138e+01
 8.9805333e+00   4.1126485e+01
 8.9860000e+00   4.2891776e+01
 8.9914667e+00   4.6159552e+01
 8.9969333e+00   4.8188805e+01
 9.0024000e+00   5.1509756e+01
 9.0078667e+00   5.3296995e+01
 9.0133333e+00   5.5273275e+01
 9.0188000e+00   5.5954400e+01
 9.0242667e+00   5.6076883e+01
 9.0297333e+00   5.5536015e+01
 9.0352000e+00   5.3424210e+01
 9.0406667e+00   5.1664582e+01
 9.0461333e+00   4.8268073e+01
 9.0516000e+00   4.5798700e+01
 9.0570667e+00   4.2296331e+01
 9.0625333e+00   4.0219535e+01
 9.0680000e+00   3.7530836e+01
 9.0734667e+00   3.6048599e+01
 9.0789333e+00   3.4024572e+01
 9.0844000e+00   3.3314918e+01
 9.0898667e+00   3.1979864e+01
 9.0953333e+00   3.1486316e+01
 9.1008000e+00   3.0779339e+01
 9.1062667e+00   3.0550578e+01
 9.1117333e+00   2.9971040e+01
 9.1172000e+00   2.9995602e+01
 9.1226667e+00   2.9584573e+01
 9.1281333e+00   2.9626586e+01
 9.1336000e+00   2.9372495e+01
 9.1390667e+00   2.9318389e+01
 9.1445333e+00   2.9214364e+01
 9.1500000e+00   2.9075677e+01
 9.1554667e+00   2.9109688e+01
 9.1609333e+00   2.9035279e+01
 9.1664000e+00   2.8974734e+01
 9.1718667e+00   2.8880645e+01
 9.1773333e+00   2.8901069e+01
 9.1828000e+00   2.8690864e+01
 9.1882667e+00   2.8765450e+01
 9.1937333e+00   2.8532143e+01
 9.1992000e+00   2.8672586e+01
 9.2046667e+00   2.8331640e+01
 9.2101333e+00   2.8579377e+01
 9.2156000e+00   2.8230260e+01
 9.2210667e+00   2.8416908e+01
 9.2265333e+00   2.8181940e+01
 9.2320000e+00   2.8394236e+01
 9.2374667e+00   2.8137789e+01
 9.2429333e+00   2.8226418e+01
 9.2484000e+00   2.8068935e+01
 9.2538667e+00   2.8040947e+01
 9.2593333e+00   2.7935572e+01
 9.2648000e+00   2.8048816e+01
 9.2702667e+00   2.7912063e+01
 9.2757333e+00   2.7899596e+01
 9.2812000e+00   2.7847938e+01
 9.2866667e+00   2.7788070e+01
 9.2921333e+00   2.7780965e+01
 9.2976000e+00   2.7704841e+01
 9.3030667e+00   2.7680682e+01
 9.3085333e+00   2.7686926e+01
 9.3140000e+00   2.7742645e+01
 9.3194667e+00   2.7570225e+01
 9.3249333e+00   2.7758909e+01
 9.3304000e+00   2.7568714e+01
 9.3358667e+00   2.7792154e+01
 9.3413333e+00   2.7733499e+01
 9.3468000e+00   2.8041785e+01
 9.3522667e+00   2.7877155e+01
 9.3577333e+00   2.8173499e+01
 9.3632000e+00   2.8133330e+01
 9.3686667e+00   2.8536374e+01
 9.3741333e+00   2.8649713e+01
 9.3796000e+00   2.9161640e+01
 9.3850667e+00   2.9565031e+01
 9.3905333e+00   3.0212612e+01
 9.3960000e+00   3.1062667e+01
 9.4014667e+00   3.2122123e+01
 9.4069333e+00   3.3295452e+01
 9.4124000e+00   3.4781227e+01
 9.4178667e+00   3.6587303e+01
 9.4233333e+00   3.8404273e+01
 9.4288000e+00   4.0655519e+01
 9.4342667e+00   4.2731654e+01
 9.4397333e+00   4.4880642e+01
 9.4452000e+00   4.6544879e+01
 9.4506667e+00   4.8131939e+01
 9.4561333e+00   4.8751679e+01
 9.4616000e+00   4.9250914e+01
 9.4670667e+00   4.8661434e+01
 9.4725333e+00   4.7916606e+01
 9.4780000e+00   4.6130513e+01
 9.4834667e+00   4.4253884e+01
 9.4889333e+00   4.2001492e+01
 9.4944000e+00   3.9666003e+01
 9.4998667e+00   3.7345874e+01
 9.5053333e+00   3.5219244e+01
 9.5108000e+00   3.3541548e+01
 9.5162667e+00   3.1745870e+01
 9.5217333e+00   3.0632002e+01
 9.5272000e+00   2.9614073e+01
 9.5326667e+00   2.8863209e+01
 9.5381333e+00   2.8295983e+01
 9.5436000e+00   2.7949395e+01
 9.5490667e+00   2.7654389e+01
 9.5545333e+00   2.7443612e+01
 9.5600000e+00   2.7358462e+01
 9.5654667e+00   2.7246987e+01
 9.5709333e+00   2.7140956e+01
 9.5764000e+00   2.7118017e+01
 9.5818667e+00   2.7096442e+01
 9.5873333e+00   2.7146011e+01
 9.5928000e+00   2.7160903e+01
 9.5982667e+00   2.7280874e+01
 9.6037333e+00   2.7305537e+01
 9.6092000e+00   2.7375764e+01
 9.6146667e+00   2.7298438e+01
 9.6201333e+00   2.7503414e+01
 9.6256000e+00   2.7616351e+01
 9.6310667e+00   2.7970509e+01
 9.6365333e+00   2.8132037e+01
 9.6420000e+00   2.8896381e+01
 9.6474667e+00   2.9627755e+01
 9.6529333e+00   3.1977337e+01
 9.6584000e+00   3.5146120e+01
 9.6638667e+00   4.4918550e+01
 9.6693333e+00   5.8329001e+01
 9.6748000e+00   6.9731696e+01
 9.6802667e+00   1.0839964e+02
 9.6857333e+00   1.1317179e+02
 9.6912000e+00   1.3733944e+02
 9.6966667e+00   1.1789277e+02
 9.7021333e+00   1.6532944e+02
 9.7076000e+00   1.3543924e+02
 9.7130667e+00   1.5618863e+02
 9.7185333e+00   1.6416825e+02
 9.7240000e+00   1.5261159e+02
 9.7294667e+00   1.3214821e+02
 9.7349333e+00   1.5321116e+02
 9.7404000e+00   1.3256766e+02
 9.7458667e+00   1.0803037e+02
 9.7513333e+00   1.0901666e+02
 9.7568000e+00   8.7187891e+01
 9.7622667e+00   9.4841141e+01
 9.7677333e+00   6.8832820e+01
 9.7732000e+00   6.5989598e+01
 9.7786667e+00   5.9326128e+01
 9.7841333e+00   3.9602546e+01
 9.7896000e+00   3.6715437e+01
 9.7950667e+00   3.0122880e+01
 9.8005333e+00   2.8994604e+01
 9.8060000e+00   2.7991201e+01
 9.8114667e+00   2.7495275e+01
 9.8169333e+00   2.7248443e+01
 9.8224000e+00   2.7024513e+01
 9.8278667e+00   2.6845936e+01
 9.8333333e+00   2.6891103e+01
 9.8388000e+00   2.6855305e+01
 9.8442667e+00   2.6879072e+01
 9.8497333e+00   2.6988145e+01
 9.8552000e+00   2.7200947e+01
 9.8606667e+00   2.7451318e+01
 9.8661333e+00   2.7721566e+01
 9.8716000e+00   2.8134287e+01
 9.8770667e+00   2.8905095e+01
 9.8825333e+00   2.9762532e+01
 9.8880000e+00   3.1054772e+01
 9.8934667e+00   3.2503135e+01
 9.8989333e+00   3.4284006e+01
 9.9044000e+00   3.6102519e+01
 9.9098667e+00   3.8384789e+01
 9.9153333e+00   4.0477725e+01
 9.9208000e+00   4.2514930e+01
 9.9262667e+00   4.3757456e+01
 9.9317333e+00   4.4987933e+01
 9.9372000e+00   4.5436889e+01
 9.9426667e+00   4.5031420e+01
 9.9481333e+00   4.4281253e+01
 9.9536000e+00   4.2868107e+01
 9.9590667e+00   4.1081791e+01
 9.9645333e+00   3.9056296e+01
 9.9700000e+00   3.7112041e+01
 9.9754667e+00   3.4942520e+01
 9.9809333e+00   3.3099825e+01
 9.9864000e+00   3.1573815e+01
 9.9918667e+00   3.0177884e+01
 9.9973333e+00   2.9088625e+01
 1.0002800e+01   2.8285359e+01
 1.0008267e+01   2.7515901e+01
 1.0013733e+01   2.7178852e+01
 1.0019200e+01   2.6652722e+01
 1.0024667e+01   2.6514265e+01
 1.0030133e+01   2.6131530e+01
 1.0035600e+01   2.6186526e+01
 1.0041067e+01   2.5872832e+01
 1.0046533e+01   2.5989037e+01
 1.0052000e+01   2.5758857e+01
 1.0057467e+01   2.6021319e+01
 1.0062933e+01   2.5716516e+01
 1.0068400e+01   2.6114953e+01
 1.0073867e+01   2.5856211e+01
 1.0079333e+01   2.6969418e+01
 1.0084800e+01   2.6113041e+01
 1.0090267e+01   3.1812637e+01
 1.0095733e+01   2.7285033e+01
 1.0101200e+01   3.0741106e+01
 1.0106667e+01   4.9073515e+01
 1.0112133e+01   3.1670210e+01
 1.0117600e+01   6.0125825e+01
 1.0123067e+01   4.0828528e+01
 1.0128533e+01   5.7151631e+01
 1.0134000e+01   5.8069003e+01
 1.0139467e+01   8.7449149e+01
 1.0144933e+01   6.9919696e+01
 1.0150400e+01   9.6345309e+01
 1.0155867e+01   6.1892978e+01
 1.0161333e+01   7.6216597e+01
 1.0166800e+01   6.2282507e+01
 1.0172267e+01   7.2391796e+01
 1.0177733e+01   5.7066962e+01
 1.0183200e+01   6.0264558e+01
 1.0188667e+01   4.9655888e+01
 1.0194133e+01   5.1573322e+01
 1.0199600e+01   3.9707632e+01
 1.0205067e+01   4.1787909e+01
 1.0210533e+01   3.1881986e+01
 1.0216000e+01   3.4887034e+01
 1.0221467e+01   2.8384060e+01
 1.0226933e+01   2.6757964e+01
 1.0232400e+01   2.6101904e+01
 1.0237867e+01   2.5673388e+01
 1.0243333e+01   2.5536511e+01
 1.0248800e+01   2.5408310e+01
 1.0254267e+01   2.5307948e+01
 1.0259733e+01   2.5268070e+01
 1.0265200e+01   2.5255358e+01
 1.0270667e+01   2.5134672e+01
 1.0276133e+01   2.5244572e+01
 1.0281600e+01   2.5097352e+01
 1.0287067e+01   2.5160926e+01
 1.0292533e+01   2.5124386e+01
 1.0298000e+01   2.5194523e+01
 1.0303467e+01   2.5104139e+01
 1.0308933e+01   2.5245474e+01
 1.0314400e+01   2.5160343e+01
 1.0319867e+01   2.5160303e+01
 1.0325333e+01   2.5187086e+01
 1.0330800e+01   2.5276467e+01
 1.0336267e+01   2.5200301e+01
 1.0341733e+01   2.5332605e+01
 1.0347200e+01   2.5372914e+01
 1.0352667e+01   2.5315400e+01
 1.0358133e+01   2.5446168e+01
 1.0363600e+01   2.5380011e+01
 1.0369067e+01   2.5421196e+01
 1.0374533e+01   2.5418975e+01
 1.0380000e+01   2.5383630e+01
 1.0385467e+01   2.5364911e+01
 1.0390933e+01   2.5314689e+01
 1.0396400e+01   2.5283965e+01
 1.0401867e+01   2.5217113e+01
 1.0407333e+01   2.5133280e+01
 1.0412800e+01   2.5118922e+01
 1.0418267e+01   2.5012496e+01
 1.0423733e+01   2.4994819e+01
 1.0429200e+01   2.4899084e+01
 1.0434667e+01   2.4941818e+01
 1.0440133e+01   2.4848367e+01
 1.0445600e+01   2.4872537e+01
 1.0451067e+01   2.4793165e+01
 1.0456533e+01   2.4765007e+01
 1.0462000e+01   2.4704006e+01
 1.0467467e+01   2.4696336e+01
 1.0472933e+01   2.4724279e+01
 1.0478400e+01   2.4738010e+01
 1.0483867e+01   2.4766823e+01
 1.0489333e+01   2.4772187e+01
 1.0494800e+01   2.4860350e+01
 1.0500267e+01   2.4761931e+01
 1.0505733e+01   2.5117288e+01
 1.0511200e+01   2.4877004e+01
 1.0516667e+01   2.5954353e+01
 1.0522133e+01   2.5017341e+01
 1.0527600e+01   2.4948335e+01
 1.0533067e+01   2.4859215e+01
 1.0538533e+01   2.4833327e+01
 1.0544000e+01   2.4895735e+01
 1.0549467e+01   2.4860375e+01
 1.0554933e+01   2.4947670e+01
 1.0560400e+01   2.4965888e+01
 1.0565867e+01   2.5018535e+01
 1.0571333e+01   2.5030311e+01
 1.0576800e+01   2.5054829e+01
 1.0582267e+01   2.5087235e+01
 1.0587733e+01   2.5269876e+01
 1.0593200e+01   2.5204640e+01
 1.0598667e+01   2.5378340e+01
 1.0604133e+01   2.5483855e+01
 1.0609600e+01   2.5656343e+01
 1.0615067e+01   2.5796979e+01
 1.0620533e+01   2.6017380e+01
 1.0626000e+01   2.6218914e+01
 1.0631467e+01   2.6601799e+01
 1.0636933e+01   2.7068185e+01
 1.0642400e+01   2.7588923e+01
 1.0647867e+01   2.8246888e+01
 1.0653333e+01   2.9160331e+01
 1.0658800e+01   3.0407129e+01
 1.0664267e+01   3.1844918e+01
 1.0669733e+01   3.3988169e+01
 1.0675200e+01   3.6146140e+01
 1.0680667e+01   3.9202636e+01
 1.0686133e+01   4.2380738e+01
 1.0691600e+01   4.6393199e+01
 1.0697067e+01   4.9901749e+01
 1.0702533e+01   5.4355800e+01
 1.0708000e+01   5.7760704e+01
 1.0713467e+01   6.1456087e+01
 1.0718933e+01   6.4248763e+01
 1.0724400e+01   6.6078654e+01
 1.0729867e+01   6.6017811e+01
 1.0735333e+01   6.5913419e+01
 1.0740800e+01   6.3659603e+01
 1.0746267e+01   6.1682287e+01
 1.0751733e+01   5.7635825e+01
 1.0757200e+01   5.4324180e+01
 1.0762667e+01   5.0115569e+01
 1.0768133e+01   4.6230378e+01
 1.0773600e+01   4.2371899e+01
 1.0779067e+01   3.9411072e+01
 1.0784533e+01   3.6320337e+01
 1.0790000e+01   3.4112197e+01
 1.0795467e+01   3.2231500e+01
 1.0800933e+01   3.0694977e+01
 1.0806400e+01   2.9615322e+01
 1.0811867e+01   2.8664580e+01
 1.0817333e+01   2.7999167e+01
 1.0822800e+01   2.7441517e+01
 1.0828267e+01   2.7105506e+01
 1.0833733e+01   2.6797969e+01
 1.0839200e+01   2.6536039e+01
 1.0844667e+01   2.6310974e+01
 1.0850133e+01   2.6258271e+01
 1.0855600e+01   2.6030720e+01
 1.0861067e+01   2.5977354e+01
 1.0866533e+01   2.5897449e+01
 1.0872000e+01   2.5880933e+01
 1.0877467e+01   2.5840423e+01
 1.0882933e+01   2.5932906e+01
 1.0888400e+01   2.5854118e+01
 1.0893867e+01   2.5898257e+01
 1.0899333e+01   2.5963581e+01
 1.0904800e+01   2.5957065e+01
 1.0910267e+01   2.6125215e+01
 1.0915733e+01   2.6213714e+01
 1.0921200e+01   2.6447602e+01
 1.0926667e+01   2.6633801e+01
 1.0932133e+01   2.6857543e+01
 1.0937600e+01   2.7203716e+01
 1.0943067e+01   2.7497202e+01
 1.0948533e+01   2.8057512e+01
 1.0954000e+01   2.8503721e+01
 1.0959467e+01   2.9159232e+01
 1.0964933e+01   2.9832038e+01
 1.0970400e+01   3.0584183e+01
 1.0975867e+01   3.1392064e+01
 1.0981333e+01   3.2165556e+01
 1.0986800e+01   3.2947641e+01
 1.0992267e+01   3.3519634e+01
 1.0997733e+01   3.4197995e+01
 1.1003200e+01   3.4615634e+01
 1.1008667e+01   3.4853638e+01
 1.1014133e+01   3.4892271e+01
 1.1019600e+01   3.4850406e+01
 1.1025067e+01   3.4332320e+01
 1.1030533e+01   3.3959781e+01
 1.1036000e+01   3.3252457e+01
 1.1041467e+01   3.2594604e+01
 1.1046933e+01   3.1772485e+01
 1.1052400e+01   3.1090779e+01
 1.1057867e+01   3.0355882e+01
 1.1063333e+01   2.9804655e+01
 1.1068800e+01   2.9244085e+01
 1.1074267e+01   2.9018082e+01
 1.1079733e+01   2.8519202e+01
 1.1085200e+01   2.8156978e+01
 1.1090667e+01   2.8017255e+01
 1.1096133e+01   2.7891358e+01
 1.1101600e+01   2.7861206e+01
 1.1107067e+01   2.7912361e+01
 1.1112533e+01   2.8036667e+01
 1.1118000e+01   2.8280886e+01
 1.1123467e+01   2.8523555e+01
 1.1128933e+01   2.8978680e+01
 1.1134400e+01   2.9410472e+01
 1.1139867e+01   3.0173967e+01
 1.1145333e+01   3.0872139e+01
 1.1150800e+01   3.1958351e+01
 1.1156267e+01   3.3145188e+01
 1.1161733e+01   3.4612463e+01
 1.1167200e+01   3.6497599e+01
 1.1172667e+01   3.8643780e+01
 1.1178133e+01   4.1234323e+01
 1.1183600e+01   4.4211683e+01
 1.1189067e+01   4.7667009e+01
 1.1194533e+01   5.1195737e+01
