PWDR ff_004445_sum_norm_dc_0.tif Azm= 352.fxye Bank 1
2-Theta Angle (Degrees)
Intensity
       1500
 3.0000000e+00   4.7444553e+01
 3.0054667e+00   4.6983027e+01
 3.0109333e+00   4.6939671e+01
 3.0164000e+00   4.6562466e+01
 3.0218667e+00   4.6210425e+01
 3.0273333e+00   4.6179772e+01
 3.0328000e+00   4.5580383e+01
 3.0382667e+00   4.5577286e+01
 3.0437333e+00   4.5132771e+01
 3.0492000e+00   4.5191630e+01
 3.0546667e+00   4.5131911e+01
 3.0601333e+00   4.4893602e+01
 3.0656000e+00   4.4867439e+01
 3.0710667e+00   4.4845903e+01
 3.0765333e+00   4.4426356e+01
 3.0820000e+00   4.4406539e+01
 3.0874667e+00   4.4255525e+01
 3.0929333e+00   4.3794561e+01
 3.0984000e+00   4.3622244e+01
 3.1038667e+00   4.3241555e+01
 3.1093333e+00   4.3388087e+01
 3.1148000e+00   4.2537123e+01
 3.1202667e+00   4.3161822e+01
 3.1257333e+00   4.2888664e+01
 3.1312000e+00   4.2719647e+01
 3.1366667e+00   4.2909526e+01
 3.1421333e+00   4.2822261e+01
 3.1476000e+00   4.2456221e+01
 3.1530667e+00   4.2624444e+01
 3.1585333e+00   4.2505077e+01
 3.1640000e+00   4.2478535e+01
 3.1694667e+00   4.2585149e+01
 3.1749333e+00   4.2347279e+01
 3.1804000e+00   4.2584546e+01
 3.1858667e+00   4.2191987e+01
 3.1913333e+00   4.2324604e+01
 3.1968000e+00   4.1884650e+01
 3.2022667e+00   4.2134439e+01
 3.2077333e+00   4.1509543e+01
 3.2132000e+00   4.1760378e+01
 3.2186667e+00   4.1279884e+01
 3.2241333e+00   4.1314563e+01
 3.2296000e+00   4.1137797e+01
 3.2350667e+00   4.0979716e+01
 3.2405333e+00   4.0700445e+01
 3.2460000e+00   4.0729699e+01
 3.2514667e+00   4.0572895e+01
 3.2569333e+00   4.0079071e+01
 3.2624000e+00   4.0621241e+01
 3.2678667e+00   3.9716996e+01
 3.2733333e+00   4.0117547e+01
 3.2788000e+00   3.9848530e+01
 3.2842667e+00   3.9768294e+01
 3.2897333e+00   3.9759283e+01
 3.2952000e+00   4.0009781e+01
 3.3006667e+00   3.9635244e+01
 3.3061333e+00   4.0072140e+01
 3.3116000e+00   3.9691535e+01
 3.3170667e+00   4.0017970e+01
 3.3225333e+00   3.9645297e+01
 3.3280000e+00   3.9967724e+01
 3.3334667e+00   3.9647913e+01
 3.3389333e+00   3.9409564e+01
 3.3444000e+00   3.9678057e+01
 3.3498667e+00   3.9274720e+01
 3.3553333e+00   3.9425571e+01
 3.3608000e+00   3.9091242e+01
 3.3662667e+00   3.9378205e+01
 3.3717333e+00   3.8824563e+01
 3.3772000e+00   3.9306148e+01
 3.3826667e+00   3.8956350e+01
 3.3881333e+00   3.9006146e+01
 3.3936000e+00   3.8837720e+01
 3.3990667e+00   3.8895337e+01
 3.4045333e+00   3.8653597e+01
 3.4100000e+00   3.8612103e+01
 3.4154667e+00   3.8681520e+01
 3.4209333e+00   3.8452480e+01
 3.4264000e+00   3.8694452e+01
 3.4318667e+00   3.8358322e+01
 3.4373333e+00   3.8680912e+01
 3.4428000e+00   3.8038718e+01
 3.4482667e+00   3.8888029e+01
 3.4537333e+00   3.7970186e+01
 3.4592000e+00   3.8591315e+01
 3.4646667e+00   3.8146297e+01
 3.4701333e+00   3.8510610e+01
 3.4756000e+00   3.8133239e+01
 3.4810667e+00   3.8533513e+01
 3.4865333e+00   3.8160737e+01
 3.4920000e+00   3.8603619e+01
 3.4974667e+00   3.8258371e+01
 3.5029333e+00   3.8408079e+01
 3.5084000e+00   3.8389423e+01
 3.5138667e+00   3.8309623e+01
 3.5193333e+00   3.8514844e+01
 3.5248000e+00   3.8118394e+01
 3.5302667e+00   3.8444573e+01
 3.5357333e+00   3.8008385e+01
 3.5412000e+00   3.8355134e+01
 3.5466667e+00   3.8027031e+01
 3.5521333e+00   3.8670734e+01
 3.5576000e+00   3.7993771e+01
 3.5630667e+00   3.8547706e+01
 3.5685333e+00   3.8190460e+01
 3.5740000e+00   3.8606055e+01
 3.5794667e+00   3.8156686e+01
 3.5849333e+00   3.8727300e+01
 3.5904000e+00   3.8568217e+01
 3.5958667e+00   3.8248885e+01
 3.6013333e+00   3.8792202e+01
 3.6068000e+00   3.8176812e+01
 3.6122667e+00   3.8571590e+01
 3.6177333e+00   3.8393406e+01
 3.6232000e+00   3.8517840e+01
 3.6286667e+00   3.8245935e+01
 3.6341333e+00   3.8819773e+01
 3.6396000e+00   3.8243822e+01
 3.6450667e+00   3.9025368e+01
 3.6505333e+00   3.8343312e+01
 3.6560000e+00   3.9136526e+01
 3.6614667e+00   3.8594430e+01
 3.6669333e+00   3.8926893e+01
 3.6724000e+00   3.8940091e+01
 3.6778667e+00   3.9023149e+01
 3.6833333e+00   3.9032354e+01
 3.6888000e+00   3.9080309e+01
 3.6942667e+00   3.9206404e+01
 3.6997333e+00   3.9073501e+01
 3.7052000e+00   3.9410797e+01
 3.7106667e+00   3.9194620e+01
 3.7161333e+00   3.9742151e+01
 3.7216000e+00   3.9013211e+01
 3.7270667e+00   3.9758762e+01
 3.7325333e+00   3.9215608e+01
 3.7380000e+00   3.9637556e+01
 3.7434667e+00   3.9493209e+01
 3.7489333e+00   3.9648414e+01
 3.7544000e+00   3.9692258e+01
 3.7598667e+00   3.9877669e+01
 3.7653333e+00   3.9581632e+01
 3.7708000e+00   4.0330930e+01
 3.7762667e+00   3.9968935e+01
 3.7817333e+00   4.0140108e+01
 3.7872000e+00   4.0312628e+01
 3.7926667e+00   4.0110075e+01
 3.7981333e+00   4.0509951e+01
 3.8036000e+00   4.0213780e+01
 3.8090667e+00   4.0849135e+01
 3.8145333e+00   4.0396604e+01
 3.8200000e+00   4.0677574e+01
 3.8254667e+00   4.0722882e+01
 3.8309333e+00   4.1118423e+01
 3.8364000e+00   4.0773386e+01
 3.8418667e+00   4.1577334e+01
 3.8473333e+00   4.1213897e+01
 3.8528000e+00   4.1732657e+01
 3.8582667e+00   4.1613157e+01
 3.8637333e+00   4.1936403e+01
 3.8692000e+00   4.1888993e+01
 3.8746667e+00   4.2066851e+01
 3.8801333e+00   4.2148827e+01
 3.8856000e+00   4.2350032e+01
 3.8910667e+00   4.2773165e+01
 3.8965333e+00   4.2637336e+01
 3.9020000e+00   4.3279953e+01
 3.9074667e+00   4.3154227e+01
 3.9129333e+00   4.3500509e+01
 3.9184000e+00   4.3099152e+01
 3.9238667e+00   4.3575669e+01
 3.9293333e+00   4.3083760e+01
 3.9348000e+00   4.3421983e+01
 3.9402667e+00   4.3028292e+01
 3.9457333e+00   4.3433475e+01
 3.9512000e+00   4.3199323e+01
 3.9566667e+00   4.3330675e+01
 3.9621333e+00   4.3377653e+01
 3.9676000e+00   4.3197116e+01
 3.9730667e+00   4.3516428e+01
 3.9785333e+00   4.3189524e+01
 3.9840000e+00   4.3423361e+01
 3.9894667e+00   4.3473723e+01
 3.9949333e+00   4.3807813e+01
 4.0004000e+00   4.3558093e+01
 4.0058667e+00   4.4268148e+01
 4.0113333e+00   4.4007546e+01
 4.0168000e+00   4.4735087e+01
 4.0222667e+00   4.4265001e+01
 4.0277333e+00   4.4977172e+01
 4.0332000e+00   4.4960527e+01
 4.0386667e+00   4.5163178e+01
 4.0441333e+00   4.6367303e+01
 4.0496000e+00   4.5365288e+01
 4.0550667e+00   4.5769822e+01
 4.0605333e+00   4.5786102e+01
 4.0660000e+00   4.6152905e+01
 4.0714667e+00   4.7059787e+01
 4.0769333e+00   4.7722885e+01
 4.0824000e+00   4.6970610e+01
 4.0878667e+00   4.8546107e+01
 4.0933333e+00   4.7659465e+01
 4.0988000e+00   4.8708930e+01
 4.1042667e+00   4.8338007e+01
 4.1097333e+00   4.8890786e+01
 4.1152000e+00   4.8934042e+01
 4.1206667e+00   4.8786977e+01
 4.1261333e+00   4.8830179e+01
 4.1316000e+00   4.8553436e+01
 4.1370667e+00   4.8901143e+01
 4.1425333e+00   4.8691208e+01
 4.1480000e+00   4.8715981e+01
 4.1534667e+00   4.8879253e+01
 4.1589333e+00   4.8932816e+01
 4.1644000e+00   4.8837648e+01
 4.1698667e+00   4.8965568e+01
 4.1753333e+00   4.8935642e+01
 4.1808000e+00   4.9067122e+01
 4.1862667e+00   4.9026571e+01
 4.1917333e+00   4.9357987e+01
 4.1972000e+00   4.9269198e+01
 4.2026667e+00   4.9637883e+01
 4.2081333e+00   4.9635145e+01
 4.2136000e+00   5.0044941e+01
 4.2190667e+00   5.0023016e+01
 4.2245333e+00   5.0130072e+01
 4.2300000e+00   5.0340609e+01
 4.2354667e+00   5.0539962e+01
 4.2409333e+00   5.0651883e+01
 4.2464000e+00   5.0832509e+01
 4.2518667e+00   5.1380284e+01
 4.2573333e+00   5.1235488e+01
 4.2628000e+00   5.1659021e+01
 4.2682667e+00   5.2028513e+01
 4.2737333e+00   5.1959591e+01
 4.2792000e+00   5.2377519e+01
 4.2846667e+00   5.2482637e+01
 4.2901333e+00   5.2683936e+01
 4.2956000e+00   5.2857413e+01
 4.3010667e+00   5.3321428e+01
 4.3065333e+00   5.3584323e+01
 4.3120000e+00   5.3959010e+01
 4.3174667e+00   5.4113243e+01
 4.3229333e+00   5.4638390e+01
 4.3284000e+00   5.4795529e+01
 4.3338667e+00   5.5261425e+01
 4.3393333e+00   5.5726986e+01
 4.3448000e+00   5.5767595e+01
 4.3502667e+00   5.6596754e+01
 4.3557333e+00   5.6793348e+01
 4.3612000e+00   5.7124432e+01
 4.3666667e+00   5.7583285e+01
 4.3721333e+00   5.8381326e+01
 4.3776000e+00   5.8395397e+01
 4.3830667e+00   5.9509149e+01
 4.3885333e+00   5.9768984e+01
 4.3940000e+00   6.0859229e+01
 4.3994667e+00   6.1419805e+01
 4.4049333e+00   6.2224435e+01
 4.4104000e+00   6.3137600e+01
 4.4158667e+00   6.4474133e+01
 4.4213333e+00   6.5034454e+01
 4.4268000e+00   6.6824980e+01
 4.4322667e+00   6.7976874e+01
 4.4377333e+00   6.9975184e+01
 4.4432000e+00   7.2454103e+01
 4.4486667e+00   7.6673181e+01
 4.4541333e+00   8.3325078e+01
 4.4596000e+00   9.8948146e+01
 4.4650667e+00   1.2734892e+02
 4.4705333e+00   1.7958914e+02
 4.4760000e+00   2.7201241e+02
 4.4814667e+00   3.8292663e+02
 4.4869333e+00   5.5577390e+02
 4.4924000e+00   7.7395865e+02
 4.4978667e+00   9.7477971e+02
 4.5033333e+00   1.1641817e+03
 4.5088000e+00   1.3824024e+03
 4.5142667e+00   1.5394622e+03
 4.5197333e+00   1.4298449e+03
 4.5252000e+00   1.2468320e+03
 4.5306667e+00   9.7875903e+02
 4.5361333e+00   7.8129893e+02
 4.5416000e+00   5.6477966e+02
 4.5470667e+00   3.8210479e+02
 4.5525333e+00   3.1272476e+02
 4.5580000e+00   2.0798032e+02
 4.5634667e+00   1.6401424e+02
 4.5689333e+00   1.1143379e+02
 4.5744000e+00   9.1740062e+01
 4.5798667e+00   8.0274939e+01
 4.5853333e+00   7.4616661e+01
 4.5908000e+00   7.2342952e+01
 4.5962667e+00   7.0097276e+01
 4.6017333e+00   6.9000033e+01
 4.6072000e+00   6.8051483e+01
 4.6126667e+00   6.7588750e+01
 4.6181333e+00   6.6878692e+01
 4.6236000e+00   6.7163745e+01
 4.6290667e+00   6.6589335e+01
 4.6345333e+00   6.7383164e+01
 4.6400000e+00   6.7312040e+01
 4.6454667e+00   6.8150788e+01
 4.6509333e+00   6.8606599e+01
 4.6564000e+00   6.8685919e+01
 4.6618667e+00   6.9019406e+01
 4.6673333e+00   6.8481025e+01
 4.6728000e+00   6.8411566e+01
 4.6782667e+00   6.7490894e+01
 4.6837333e+00   6.7441258e+01
 4.6892000e+00   6.6357188e+01
 4.6946667e+00   6.6127265e+01
 4.7001333e+00   6.4921309e+01
 4.7056000e+00   6.5071676e+01
 4.7110667e+00   6.3876328e+01
 4.7165333e+00   6.4140976e+01
 4.7220000e+00   6.3425060e+01
 4.7274667e+00   6.3441618e+01
 4.7329333e+00   6.2906638e+01
 4.7384000e+00   6.2713212e+01
 4.7438667e+00   6.2408237e+01
 4.7493333e+00   6.2081062e+01
 4.7548000e+00   6.2148960e+01
 4.7602667e+00   6.0955904e+01
 4.7657333e+00   6.2326745e+01
 4.7712000e+00   6.1060102e+01
 4.7766667e+00   6.2463705e+01
 4.7821333e+00   6.0809911e+01
 4.7876000e+00   6.2072279e+01
 4.7930667e+00   6.0465631e+01
 4.7985333e+00   6.1791727e+01
 4.8040000e+00   6.1028022e+01
 4.8094667e+00   6.1938081e+01
 4.8149333e+00   6.1363098e+01
 4.8204000e+00   6.2529645e+01
 4.8258667e+00   6.1970787e+01
 4.8313333e+00   6.2473210e+01
 4.8368000e+00   6.3029702e+01
 4.8422667e+00   6.2578023e+01
 4.8477333e+00   6.4176874e+01
 4.8532000e+00   6.2984609e+01
 4.8586667e+00   6.5726982e+01
 4.8641333e+00   6.3540164e+01
 4.8696000e+00   6.8031550e+01
 4.8750667e+00   6.4316294e+01
 4.8805333e+00   6.9449982e+01
 4.8860000e+00   6.6068370e+01
 4.8914667e+00   7.2370842e+01
 4.8969333e+00   6.8776487e+01
 4.9024000e+00   7.8601181e+01
 4.9078667e+00   7.4840786e+01
 4.9133333e+00   9.1959353e+01
 4.9188000e+00   9.6034408e+01
 4.9242667e+00   1.2474398e+02
 4.9297333e+00   1.6033911e+02
 4.9352000e+00   1.6118758e+02
 4.9406667e+00   2.8568774e+02
 4.9461333e+00   2.1509055e+02
 4.9516000e+00   4.5135075e+02
 4.9570667e+00   3.1100248e+02
 4.9625333e+00   5.4977727e+02
 4.9680000e+00   4.0316203e+02
 4.9734667e+00   4.7447259e+02
 4.9789333e+00   4.7817603e+02
 4.9844000e+00   4.1848708e+02
 4.9898667e+00   4.7993351e+02
 4.9953333e+00   3.6189260e+02
 5.0008000e+00   2.7743459e+02
 5.0062667e+00   2.5701326e+02
 5.0117333e+00   1.7771188e+02
 5.0172000e+00   1.6352812e+02
 5.0226667e+00   1.1285768e+02
 5.0281333e+00   9.8030177e+01
 5.0336000e+00   8.6282611e+01
 5.0390667e+00   7.5758637e+01
 5.0445333e+00   7.5570305e+01
 5.0500000e+00   7.0176080e+01
 5.0554667e+00   7.0792942e+01
 5.0609333e+00   6.7482998e+01
 5.0664000e+00   6.7771527e+01
 5.0718667e+00   6.5925517e+01
 5.0773333e+00   6.5937273e+01
 5.0828000e+00   6.4035323e+01
 5.0882667e+00   6.4072904e+01
 5.0937333e+00   6.3035933e+01
 5.0992000e+00   6.2101648e+01
 5.1046667e+00   6.1466500e+01
 5.1101333e+00   6.0985984e+01
 5.1156000e+00   6.0492606e+01
 5.1210667e+00   5.9345439e+01
 5.1265333e+00   5.9688779e+01
 5.1320000e+00   5.8281349e+01
 5.1374667e+00   5.8941076e+01
 5.1429333e+00   5.7463828e+01
 5.1484000e+00   5.8041824e+01
 5.1538667e+00   5.6899088e+01
 5.1593333e+00   5.7040355e+01
 5.1648000e+00   5.6370187e+01
 5.1702667e+00   5.6099668e+01
 5.1757333e+00   5.5962224e+01
 5.1812000e+00   5.5285831e+01
 5.1866667e+00   5.5280359e+01
 5.1921333e+00   5.5173837e+01
 5.1976000e+00   5.4740885e+01
 5.2030667e+00   5.4358206e+01
 5.2085333e+00   5.4495482e+01
 5.2140000e+00   5.3577728e+01
 5.2194667e+00   5.4126657e+01
 5.2249333e+00   5.3286983e+01
 5.2304000e+00   5.3549505e+01
 5.2358667e+00   5.2687066e+01
 5.2413333e+00   5.2960015e+01
 5.2468000e+00   5.2306036e+01
 5.2522667e+00   5.2361371e+01
 5.2577333e+00   5.2190849e+01
 5.2632000e+00   5.1916456e+01
 5.2686667e+00   5.1950225e+01
 5.2741333e+00   5.1735608e+01
 5.2796000e+00   5.1595592e+01
 5.2850667e+00   5.1437091e+01
 5.2905333e+00   5.1419806e+01
 5.2960000e+00   5.0840782e+01
 5.3014667e+00   5.1196630e+01
 5.3069333e+00   5.0551893e+01
 5.3124000e+00   5.0768794e+01
 5.3178667e+00   5.0327984e+01
 5.3233333e+00   5.0325104e+01
 5.3288000e+00   5.0004503e+01
 5.3342667e+00   4.9933884e+01
 5.3397333e+00   4.9689675e+01
 5.3452000e+00   4.9560235e+01
 5.3506667e+00   4.9740712e+01
 5.3561333e+00   4.9313973e+01
 5.3616000e+00   4.9360486e+01
 5.3670667e+00   4.9370986e+01
 5.3725333e+00   4.9219851e+01
 5.3780000e+00   4.9023008e+01
 5.3834667e+00   4.8941975e+01
 5.3889333e+00   4.8825431e+01
 5.3944000e+00   4.8693422e+01
 5.3998667e+00   4.8630218e+01
 5.4053333e+00   4.8563838e+01
 5.4108000e+00   4.8312176e+01
 5.4162667e+00   4.8159925e+01
 5.4217333e+00   4.8256256e+01
 5.4272000e+00   4.7814691e+01
 5.4326667e+00   4.7892304e+01
 5.4381333e+00   4.7839774e+01
 5.4436000e+00   4.7827394e+01
 5.4490667e+00   4.7852619e+01
 5.4545333e+00   4.7686186e+01
 5.4600000e+00   4.7594411e+01
 5.4654667e+00   4.7658923e+01
 5.4709333e+00   4.7144428e+01
 5.4764000e+00   4.7400408e+01
 5.4818667e+00   4.7230204e+01
 5.4873333e+00   4.7179041e+01
 5.4928000e+00   4.7013356e+01
 5.4982667e+00   4.7040176e+01
 5.5037333e+00   4.7083321e+01
 5.5092000e+00   4.6951635e+01
 5.5146667e+00   4.6978737e+01
 5.5201333e+00   4.6852712e+01
 5.5256000e+00   4.6920963e+01
 5.5310667e+00   4.6730835e+01
 5.5365333e+00   4.6921678e+01
 5.5420000e+00   4.6757471e+01
 5.5474667e+00   4.6717483e+01
 5.5529333e+00   4.6503951e+01
 5.5584000e+00   4.6686551e+01
 5.5638667e+00   4.6403471e+01
 5.5693333e+00   4.6522675e+01
 5.5748000e+00   4.6654041e+01
 5.5802667e+00   4.6382174e+01
 5.5857333e+00   4.6503680e+01
 5.5912000e+00   4.6403125e+01
 5.5966667e+00   4.6450425e+01
 5.6021333e+00   4.6389413e+01
 5.6076000e+00   4.6531855e+01
 5.6130667e+00   4.6395096e+01
 5.6185333e+00   4.6658769e+01
 5.6240000e+00   4.6436879e+01
 5.6294667e+00   4.6689876e+01
 5.6349333e+00   4.6516362e+01
 5.6404000e+00   4.6615414e+01
 5.6458667e+00   4.6660774e+01
 5.6513333e+00   4.6881652e+01
 5.6568000e+00   4.7440096e+01
 5.6622667e+00   4.7749079e+01
 5.6677333e+00   4.9641787e+01
 5.6732000e+00   5.0181218e+01
 5.6786667e+00   6.1771954e+01
 5.6841333e+00   6.9956578e+01
 5.6896000e+00   7.5423442e+01
 5.6950667e+00   8.4093032e+01
 5.7005333e+00   1.2003694e+02
 5.7060000e+00   1.1643594e+02
 5.7114667e+00   1.4805214e+02
 5.7169333e+00   1.4701726e+02
 5.7224000e+00   1.5837001e+02
 5.7278667e+00   1.3781773e+02
 5.7333333e+00   1.8091871e+02
 5.7388000e+00   1.2526120e+02
 5.7442667e+00   1.7668554e+02
 5.7497333e+00   1.5249310e+02
 5.7552000e+00   1.5581049e+02
 5.7606667e+00   1.3900464e+02
 5.7661333e+00   1.4500243e+02
 5.7716000e+00   1.0449414e+02
 5.7770667e+00   1.0720952e+02
 5.7825333e+00   7.4565554e+01
 5.7880000e+00   8.3753842e+01
 5.7934667e+00   6.4264412e+01
 5.7989333e+00   5.8686566e+01
 5.8044000e+00   5.1428701e+01
 5.8098667e+00   4.8975193e+01
 5.8153333e+00   4.6865530e+01
 5.8208000e+00   4.6087273e+01
 5.8262667e+00   4.5669637e+01
 5.8317333e+00   4.5347310e+01
 5.8372000e+00   4.5132659e+01
 5.8426667e+00   4.4807603e+01
 5.8481333e+00   4.4827529e+01
 5.8536000e+00   4.4407653e+01
 5.8590667e+00   4.4195197e+01
 5.8645333e+00   4.4078410e+01
 5.8700000e+00   4.3661814e+01
 5.8754667e+00   4.3563185e+01
 5.8809333e+00   4.3322648e+01
 5.8864000e+00   4.3293338e+01
 5.8918667e+00   4.2885018e+01
 5.8973333e+00   4.2957493e+01
 5.9028000e+00   4.2834299e+01
 5.9082667e+00   4.2691669e+01
 5.9137333e+00   4.2614118e+01
 5.9192000e+00   4.2438261e+01
 5.9246667e+00   4.2499061e+01
 5.9301333e+00   4.2463762e+01
 5.9356000e+00   4.1944828e+01
 5.9410667e+00   4.2305587e+01
 5.9465333e+00   4.2008030e+01
 5.9520000e+00   4.1865114e+01
 5.9574667e+00   4.1793679e+01
 5.9629333e+00   4.1910863e+01
 5.9684000e+00   4.1793864e+01
 5.9738667e+00   4.1574339e+01
 5.9793333e+00   4.1834774e+01
 5.9848000e+00   4.1706809e+01
 5.9902667e+00   4.1593620e+01
 5.9957333e+00   4.1594741e+01
 6.0012000e+00   4.1705436e+01
 6.0066667e+00   4.1288419e+01
 6.0121333e+00   4.1727780e+01
 6.0176000e+00   4.1376990e+01
 6.0230667e+00   4.1659149e+01
 6.0285333e+00   4.1281445e+01
 6.0340000e+00   4.1653420e+01
 6.0394667e+00   4.1388506e+01
 6.0449333e+00   4.1540152e+01
 6.0504000e+00   4.1473284e+01
 6.0558667e+00   4.1698325e+01
 6.0613333e+00   4.1641585e+01
 6.0668000e+00   4.1645200e+01
 6.0722667e+00   4.1594508e+01
 6.0777333e+00   4.1643639e+01
 6.0832000e+00   4.1583144e+01
 6.0886667e+00   4.1601109e+01
 6.0941333e+00   4.1488507e+01
 6.0996000e+00   4.1408779e+01
 6.1050667e+00   4.1437894e+01
 6.1105333e+00   4.1300607e+01
 6.1160000e+00   4.1581771e+01
 6.1214667e+00   4.1239790e+01
 6.1269333e+00   4.1432282e+01
 6.1324000e+00   4.1258912e+01
 6.1378667e+00   4.1323302e+01
 6.1433333e+00   4.1177008e+01
 6.1488000e+00   4.1246875e+01
 6.1542667e+00   4.1068402e+01
 6.1597333e+00   4.1155566e+01
 6.1652000e+00   4.0806787e+01
 6.1706667e+00   4.1091720e+01
 6.1761333e+00   4.0780752e+01
 6.1816000e+00   4.1033631e+01
 6.1870667e+00   4.0746147e+01
 6.1925333e+00   4.0719323e+01
 6.1980000e+00   4.0828948e+01
 6.2034667e+00   4.0630002e+01
 6.2089333e+00   4.0852461e+01
 6.2144000e+00   4.0707088e+01
 6.2198667e+00   4.0920538e+01
 6.2253333e+00   4.0922242e+01
 6.2308000e+00   4.0974637e+01
 6.2362667e+00   4.1023443e+01
 6.2417333e+00   4.1200660e+01
 6.2472000e+00   4.0996670e+01
 6.2526667e+00   4.1227047e+01
 6.2581333e+00   4.1239461e+01
 6.2636000e+00   4.1116701e+01
 6.2690667e+00   4.1197668e+01
 6.2745333e+00   4.1129644e+01
 6.2800000e+00   4.1197718e+01
 6.2854667e+00   4.1138625e+01
 6.2909333e+00   4.1497981e+01
 6.2964000e+00   4.1321780e+01
 6.3018667e+00   4.1610798e+01
 6.3073333e+00   4.1873416e+01
 6.3128000e+00   4.2262731e+01
 6.3182667e+00   4.2504623e+01
 6.3237333e+00   4.3325599e+01
 6.3292000e+00   4.4416255e+01
 6.3346667e+00   4.7133856e+01
 6.3401333e+00   5.2062038e+01
 6.3456000e+00   6.3646426e+01
 6.3510667e+00   8.4516252e+01
 6.3565333e+00   1.1146425e+02
 6.3620000e+00   1.4049378e+02
 6.3674667e+00   1.7266070e+02
 6.3729333e+00   1.8811427e+02
 6.3784000e+00   2.0694485e+02
 6.3838667e+00   1.9938755e+02
 6.3893333e+00   1.8631108e+02
 6.3948000e+00   1.7325580e+02
 6.4002667e+00   1.5673973e+02
 6.4057333e+00   1.3880799e+02
 6.4112000e+00   1.2660005e+02
 6.4166667e+00   1.0623459e+02
 6.4221333e+00   9.0492153e+01
 6.4276000e+00   7.7396377e+01
 6.4330667e+00   6.3185815e+01
 6.4385333e+00   5.2747505e+01
 6.4440000e+00   4.7320364e+01
 6.4494667e+00   4.4156356e+01
 6.4549333e+00   4.2949578e+01
 6.4604000e+00   4.2219321e+01
 6.4658667e+00   4.1699328e+01
 6.4713333e+00   4.1446105e+01
 6.4768000e+00   4.1214942e+01
 6.4822667e+00   4.1153701e+01
 6.4877333e+00   4.1014341e+01
 6.4932000e+00   4.0823397e+01
 6.4986667e+00   4.0919598e+01
 6.5041333e+00   4.0676576e+01
 6.5096000e+00   4.0591527e+01
 6.5150667e+00   4.0560065e+01
 6.5205333e+00   4.0708827e+01
 6.5260000e+00   4.0302554e+01
 6.5314667e+00   4.0657647e+01
 6.5369333e+00   4.0979762e+01
 6.5424000e+00   4.0707831e+01
 6.5478667e+00   4.0162706e+01
 6.5533333e+00   4.0678080e+01
 6.5588000e+00   4.0005192e+01
 6.5642667e+00   4.0401017e+01
 6.5697333e+00   3.9922776e+01
 6.5752000e+00   4.0335631e+01
 6.5806667e+00   3.9743191e+01
 6.5861333e+00   4.0117873e+01
 6.5916000e+00   3.9707624e+01
 6.5970667e+00   3.9864482e+01
 6.6025333e+00   3.9743391e+01
 6.6080000e+00   3.9642203e+01
 6.6134667e+00   3.9683662e+01
 6.6189333e+00   3.9718650e+01
 6.6244000e+00   3.9584299e+01
 6.6298667e+00   3.9759109e+01
 6.6353333e+00   3.9596794e+01
 6.6408000e+00   3.9431325e+01
 6.6462667e+00   3.9605149e+01
 6.6517333e+00   3.9312553e+01
 6.6572000e+00   3.9663949e+01
 6.6626667e+00   3.9276249e+01
 6.6681333e+00   3.9576397e+01
 6.6736000e+00   3.9398754e+01
 6.6790667e+00   3.9541172e+01
 6.6845333e+00   3.9313588e+01
 6.6900000e+00   3.9452533e+01
 6.6954667e+00   3.9315922e+01
 6.7009333e+00   3.9597848e+01
 6.7064000e+00   3.9335403e+01
 6.7118667e+00   3.9644198e+01
 6.7173333e+00   3.9486533e+01
 6.7228000e+00   3.9663064e+01
 6.7282667e+00   3.9623370e+01
 6.7337333e+00   3.9473012e+01
 6.7392000e+00   3.9485784e+01
 6.7446667e+00   3.9547368e+01
 6.7501333e+00   3.9471617e+01
 6.7556000e+00   3.9300785e+01
 6.7610667e+00   3.9572934e+01
 6.7665333e+00   3.9395402e+01
 6.7720000e+00   3.9647640e+01
 6.7774667e+00   3.9557831e+01
 6.7829333e+00   3.9448207e+01
 6.7884000e+00   3.9698295e+01
 6.7938667e+00   3.9603950e+01
 6.7993333e+00   3.9434143e+01
 6.8048000e+00   3.9945921e+01
 6.8102667e+00   3.9337265e+01
 6.8157333e+00   3.9881298e+01
 6.8212000e+00   3.9666997e+01
 6.8266667e+00   3.9677553e+01
 6.8321333e+00   3.9969954e+01
 6.8376000e+00   3.9625928e+01
 6.8430667e+00   3.9792007e+01
 6.8485333e+00   3.9711272e+01
 6.8540000e+00   4.0049791e+01
 6.8594667e+00   3.9707582e+01
 6.8649333e+00   4.0035198e+01
 6.8704000e+00   3.9938713e+01
 6.8758667e+00   3.9872446e+01
 6.8813333e+00   3.9872860e+01
 6.8868000e+00   4.0236410e+01
 6.8922667e+00   3.9789123e+01
 6.8977333e+00   4.0256398e+01
 6.9032000e+00   3.9924311e+01
 6.9086667e+00   4.0300117e+01
 6.9141333e+00   3.9990049e+01
 6.9196000e+00   4.0362402e+01
 6.9250667e+00   4.0189580e+01
 6.9305333e+00   4.0205723e+01
 6.9360000e+00   4.0530993e+01
 6.9414667e+00   4.0297014e+01
 6.9469333e+00   4.0403038e+01
 6.9524000e+00   4.0663091e+01
 6.9578667e+00   4.0411487e+01
 6.9633333e+00   4.0575614e+01
 6.9688000e+00   4.0574931e+01
 6.9742667e+00   4.0686422e+01
 6.9797333e+00   4.0740834e+01
 6.9852000e+00   4.0792558e+01
 6.9906667e+00   4.0989193e+01
 6.9961333e+00   4.0550887e+01
 7.0016000e+00   4.1071262e+01
 7.0070667e+00   4.0836719e+01
 7.0125333e+00   4.1062302e+01
 7.0180000e+00   4.1013568e+01
 7.0234667e+00   4.1267345e+01
 7.0289333e+00   4.1150052e+01
 7.0344000e+00   4.1143332e+01
 7.0398667e+00   4.1281651e+01
 7.0453333e+00   4.1112488e+01
 7.0508000e+00   4.1458996e+01
 7.0562667e+00   4.1317676e+01
 7.0617333e+00   4.1614373e+01
 7.0672000e+00   4.1546837e+01
 7.0726667e+00   4.1760674e+01
 7.0781333e+00   4.1561900e+01
 7.0836000e+00   4.2116288e+01
 7.0890667e+00   4.1936454e+01
 7.0945333e+00   4.2246614e+01
 7.1000000e+00   4.2314115e+01
 7.1054667e+00   4.2742016e+01
 7.1109333e+00   4.2248128e+01
 7.1164000e+00   4.3185429e+01
 7.1218667e+00   4.2770390e+01
 7.1273333e+00   4.2895356e+01
 7.1328000e+00   4.3014763e+01
 7.1382667e+00   4.3052634e+01
 7.1437333e+00   4.2906056e+01
 7.1492000e+00   4.3071527e+01
 7.1546667e+00   4.3220668e+01
 7.1601333e+00   4.2886870e+01
 7.1656000e+00   4.3336219e+01
 7.1710667e+00   4.3041046e+01
 7.1765333e+00   4.3068433e+01
 7.1820000e+00   4.3480292e+01
 7.1874667e+00   4.3218295e+01
 7.1929333e+00   4.3190960e+01
 7.1984000e+00   4.3658171e+01
 7.2038667e+00   4.3097845e+01
 7.2093333e+00   4.3585165e+01
 7.2148000e+00   4.3046107e+01
 7.2202667e+00   4.3606746e+01
 7.2257333e+00   4.3132641e+01
 7.2312000e+00   4.3308381e+01
 7.2366667e+00   4.3323683e+01
 7.2421333e+00   4.3558935e+01
 7.2476000e+00   4.3221644e+01
 7.2530667e+00   4.3686325e+01
 7.2585333e+00   4.3462701e+01
 7.2640000e+00   4.3874157e+01
 7.2694667e+00   4.3478768e+01
 7.2749333e+00   4.3908896e+01
 7.2804000e+00   4.3582777e+01
 7.2858667e+00   4.3910920e+01
 7.2913333e+00   4.3948792e+01
 7.2968000e+00   4.3795736e+01
 7.3022667e+00   4.4113812e+01
 7.3077333e+00   4.4042236e+01
 7.3132000e+00   4.3979696e+01
 7.3186667e+00   4.4128026e+01
 7.3241333e+00   4.4347365e+01
 7.3296000e+00   4.3963234e+01
 7.3350667e+00   4.4481744e+01
 7.3405333e+00   4.4598629e+01
 7.3460000e+00   4.4624713e+01
 7.3514667e+00   4.4707018e+01
 7.3569333e+00   4.4647140e+01
 7.3624000e+00   4.4855034e+01
 7.3678667e+00   4.5070002e+01
 7.3733333e+00   4.4761479e+01
 7.3788000e+00   4.5206627e+01
 7.3842667e+00   4.5007872e+01
 7.3897333e+00   4.5092189e+01
 7.3952000e+00   4.5218690e+01
 7.4006667e+00   4.5482003e+01
 7.4061333e+00   4.5317609e+01
 7.4116000e+00   4.5747320e+01
 7.4170667e+00   4.5538042e+01
 7.4225333e+00   4.5964827e+01
 7.4280000e+00   4.5766982e+01
 7.4334667e+00   4.5968613e+01
 7.4389333e+00   4.5937210e+01
 7.4444000e+00   4.5977505e+01
 7.4498667e+00   4.6066108e+01
 7.4553333e+00   4.5967170e+01
 7.4608000e+00   4.6123878e+01
 7.4662667e+00   4.6252725e+01
 7.4717333e+00   4.6110444e+01
 7.4772000e+00   4.6588366e+01
 7.4826667e+00   4.6413895e+01
 7.4881333e+00   4.6620994e+01
 7.4936000e+00   4.6698417e+01
 7.4990667e+00   4.6764614e+01
 7.5045333e+00   4.6925651e+01
 7.5100000e+00   4.7034933e+01
 7.5154667e+00   4.7031972e+01
 7.5209333e+00   4.7204495e+01
 7.5264000e+00   4.7075708e+01
 7.5318667e+00   4.7324151e+01
 7.5373333e+00   4.7354871e+01
 7.5428000e+00   4.7385215e+01
 7.5482667e+00   4.7560820e+01
 7.5537333e+00   4.7654094e+01
 7.5592000e+00   4.7654330e+01
 7.5646667e+00   4.7715418e+01
 7.5701333e+00   4.8036902e+01
 7.5756000e+00   4.7995741e+01
 7.5810667e+00   4.8167198e+01
 7.5865333e+00   4.8483271e+01
 7.5920000e+00   4.8467895e+01
 7.5974667e+00   4.8579494e+01
 7.6029333e+00   4.8833830e+01
 7.6084000e+00   4.8690429e+01
 7.6138667e+00   4.8955482e+01
 7.6193333e+00   4.9169299e+01
 7.6248000e+00   4.8966826e+01
 7.6302667e+00   4.9195781e+01
 7.6357333e+00   4.9217894e+01
 7.6412000e+00   4.9481906e+01
 7.6466667e+00   4.9444692e+01
 7.6521333e+00   4.9653607e+01
 7.6576000e+00   4.9814663e+01
 7.6630667e+00   4.9894049e+01
 7.6685333e+00   4.9965070e+01
 7.6740000e+00   5.0185065e+01
 7.6794667e+00   5.0470438e+01
 7.6849333e+00   5.0501301e+01
 7.6904000e+00   5.0773863e+01
 7.6958667e+00   5.1085950e+01
 7.7013333e+00   5.0977258e+01
 7.7068000e+00   5.1344021e+01
 7.7122667e+00   5.1472252e+01
 7.7177333e+00   5.1920504e+01
 7.7232000e+00   5.1883830e+01
 7.7286667e+00   5.2472696e+01
 7.7341333e+00   5.2431805e+01
 7.7396000e+00   5.2899149e+01
 7.7450667e+00   5.3289469e+01
 7.7505333e+00   5.3618961e+01
 7.7560000e+00   5.4251623e+01
 7.7614667e+00   5.5247910e+01
 7.7669333e+00   5.6355293e+01
 7.7724000e+00   5.9200290e+01
 7.7778667e+00   6.4148468e+01
 7.7833333e+00   7.1879081e+01
 7.7888000e+00   8.4910424e+01
 7.7942667e+00   1.0482075e+02
 7.7997333e+00   1.3160199e+02
 7.8052000e+00   1.6501010e+02
 7.8106667e+00   1.9339345e+02
 7.8161333e+00   2.1554638e+02
 7.8216000e+00   2.3286908e+02
 7.8270667e+00   2.4107754e+02
 7.8325333e+00   2.3017405e+02
 7.8380000e+00   2.2125315e+02
 7.8434667e+00   1.9371332e+02
 7.8489333e+00   1.6730489e+02
 7.8544000e+00   1.4066836e+02
 7.8598667e+00   1.1433281e+02
 7.8653333e+00   9.5182080e+01
 7.8708000e+00   7.7486675e+01
 7.8762667e+00   6.8515570e+01
 7.8817333e+00   6.2039535e+01
 7.8872000e+00   5.9294240e+01
 7.8926667e+00   5.7242011e+01
 7.8981333e+00   5.6612541e+01
 7.9036000e+00   5.5982329e+01
 7.9090667e+00   5.5464096e+01
 7.9145333e+00   5.5510817e+01
 7.9200000e+00   5.5080196e+01
 7.9254667e+00   5.5303072e+01
 7.9309333e+00   5.4765430e+01
 7.9364000e+00   5.4853275e+01
 7.9418667e+00   5.4620280e+01
 7.9473333e+00   5.4760833e+01
 7.9528000e+00   5.4388985e+01
 7.9582667e+00   5.4375470e+01
 7.9637333e+00   5.4325653e+01
 7.9692000e+00   5.4104343e+01
 7.9746667e+00   5.3919835e+01
 7.9801333e+00   5.3948914e+01
 7.9856000e+00   5.3696886e+01
 7.9910667e+00   5.3913998e+01
 7.9965333e+00   5.3721675e+01
 8.0020000e+00   5.3800756e+01
 8.0074667e+00   5.3833976e+01
 8.0129333e+00   5.3907054e+01
 8.0184000e+00   5.4144710e+01
 8.0238667e+00   5.4073721e+01
 8.0293333e+00   5.4820906e+01
 8.0348000e+00   5.4462780e+01
 8.0402667e+00   5.5050479e+01
 8.0457333e+00   5.5847909e+01
 8.0512000e+00   5.6068801e+01
 8.0566667e+00   6.1426313e+01
 8.0621333e+00   5.9726538e+01
 8.0676000e+00   7.6478416e+01
 8.0730667e+00   6.8139267e+01
 8.0785333e+00   8.5216659e+01
 8.0840000e+00   7.4139424e+01
 8.0894667e+00   9.7340651e+01
 8.0949333e+00   7.9679056e+01
 8.1004000e+00   1.3159957e+02
 8.1058667e+00   1.1993370e+02
 8.1113333e+00   1.4932396e+02
 8.1168000e+00   1.4666290e+02
 8.1222667e+00   1.4659409e+02
 8.1277333e+00   1.2443558e+02
 8.1332000e+00   1.3764506e+02
 8.1386667e+00   1.1010614e+02
 8.1441333e+00   1.1044702e+02
 8.1496000e+00   1.0580635e+02
 8.1550667e+00   1.0082901e+02
 8.1605333e+00   9.1813548e+01
 8.1660000e+00   8.3941970e+01
 8.1714667e+00   9.2947241e+01
 8.1769333e+00   8.2069783e+01
 8.1824000e+00   8.0291452e+01
 8.1878667e+00   6.9765964e+01
 8.1933333e+00   6.2471019e+01
 8.1988000e+00   5.7628349e+01
 8.2042667e+00   5.5830784e+01
 8.2097333e+00   5.4928128e+01
 8.2152000e+00   5.4316687e+01
 8.2206667e+00   5.4039472e+01
 8.2261333e+00   5.3765371e+01
 8.2316000e+00   5.3503045e+01
 8.2370667e+00   5.3587208e+01
 8.2425333e+00   5.2995868e+01
 8.2480000e+00   5.3140303e+01
 8.2534667e+00   5.2707297e+01
 8.2589333e+00   5.3134585e+01
 8.2644000e+00   5.2556528e+01
 8.2698667e+00   5.2760339e+01
 8.2753333e+00   5.2201326e+01
 8.2808000e+00   5.2545196e+01
 8.2862667e+00   5.1930217e+01
 8.2917333e+00   5.2238965e+01
 8.2972000e+00   5.1800961e+01
 8.3026667e+00   5.1910521e+01
 8.3081333e+00   5.1696678e+01
 8.3136000e+00   5.1706900e+01
 8.3190667e+00   5.1346006e+01
 8.3245333e+00   5.1528202e+01
 8.3300000e+00   5.1229395e+01
 8.3354667e+00   5.1280767e+01
 8.3409333e+00   5.1134734e+01
 8.3464000e+00   5.1286584e+01
 8.3518667e+00   5.1119801e+01
 8.3573333e+00   5.0983590e+01
 8.3628000e+00   5.1324758e+01
 8.3682667e+00   5.0894808e+01
 8.3737333e+00   5.1221224e+01
 8.3792000e+00   5.0923691e+01
 8.3846667e+00   5.1278737e+01
 8.3901333e+00   5.1050590e+01
 8.3956000e+00   5.1277063e+01
 8.4010667e+00   5.1140527e+01
 8.4065333e+00   5.1217839e+01
 8.4120000e+00   5.1102258e+01
 8.4174667e+00   5.1224453e+01
 8.4229333e+00   5.0941133e+01
 8.4284000e+00   5.1080831e+01
 8.4338667e+00   5.0741058e+01
 8.4393333e+00   5.0919161e+01
 8.4448000e+00   5.0800594e+01
 8.4502667e+00   5.0744766e+01
 8.4557333e+00   5.0919145e+01
 8.4612000e+00   5.0828928e+01
 8.4666667e+00   5.1065163e+01
 8.4721333e+00   5.0702435e+01
 8.4776000e+00   5.1122036e+01
 8.4830667e+00   5.0889777e+01
 8.4885333e+00   5.1265018e+01
 8.4940000e+00   5.0709623e+01
 8.4994667e+00   5.1237719e+01
 8.5049333e+00   5.0747620e+01
 8.5104000e+00   5.1099591e+01
 8.5158667e+00   5.0684029e+01
 8.5213333e+00   5.0679426e+01
 8.5268000e+00   5.0518487e+01
 8.5322667e+00   5.0701178e+01
 8.5377333e+00   5.0349446e+01
 8.5432000e+00   5.0605734e+01
 8.5486667e+00   5.0253350e+01
 8.5541333e+00   5.0499558e+01
 8.5596000e+00   5.0265009e+01
 8.5650667e+00   5.0329190e+01
 8.5705333e+00   5.0271827e+01
 8.5760000e+00   5.0107908e+01
 8.5814667e+00   5.0293134e+01
 8.5869333e+00   5.0012874e+01
 8.5924000e+00   4.9962344e+01
 8.5978667e+00   4.9990441e+01
 8.6033333e+00   5.0193979e+01
 8.6088000e+00   4.9779190e+01
 8.6142667e+00   5.0075678e+01
 8.6197333e+00   4.9657591e+01
 8.6252000e+00   5.0074147e+01
 8.6306667e+00   4.9694096e+01
 8.6361333e+00   4.9772099e+01
 8.6416000e+00   4.9701610e+01
 8.6470667e+00   4.9641097e+01
 8.6525333e+00   4.9399941e+01
 8.6580000e+00   4.9535999e+01
 8.6634667e+00   4.9196402e+01
 8.6689333e+00   4.9457439e+01
 8.6744000e+00   4.9211056e+01
 8.6798667e+00   4.9218691e+01
 8.6853333e+00   4.9210988e+01
 8.6908000e+00   4.9200855e+01
 8.6962667e+00   4.9122801e+01
 8.7017333e+00   4.9214364e+01
 8.7072000e+00   4.9352264e+01
 8.7126667e+00   4.9066204e+01
 8.7181333e+00   4.9233335e+01
 8.7236000e+00   4.8842556e+01
 8.7290667e+00   4.9209125e+01
 8.7345333e+00   4.8942963e+01
 8.7400000e+00   4.9097733e+01
 8.7454667e+00   4.8754206e+01
 8.7509333e+00   4.8962568e+01
 8.7564000e+00   4.8461225e+01
 8.7618667e+00   4.9138221e+01
 8.7673333e+00   4.8506518e+01
 8.7728000e+00   4.8927742e+01
 8.7782667e+00   4.8642492e+01
 8.7837333e+00   4.8856112e+01
 8.7892000e+00   4.8674163e+01
 8.7946667e+00   4.8924280e+01
 8.8001333e+00   4.8661379e+01
 8.8056000e+00   4.8622074e+01
 8.8110667e+00   4.8619524e+01
 8.8165333e+00   4.8514273e+01
 8.8220000e+00   4.8570620e+01
 8.8274667e+00   4.8478100e+01
 8.8329333e+00   4.8482243e+01
 8.8384000e+00   4.8365751e+01
 8.8438667e+00   4.8558621e+01
 8.8493333e+00   4.8249587e+01
 8.8548000e+00   4.8431985e+01
 8.8602667e+00   4.8424997e+01
 8.8657333e+00   4.8297855e+01
 8.8712000e+00   4.8169764e+01
 8.8766667e+00   4.8527582e+01
 8.8821333e+00   4.8160885e+01
 8.8876000e+00   4.8422697e+01
 8.8930667e+00   4.8209169e+01
 8.8985333e+00   4.8366492e+01
 8.9040000e+00   4.8155091e+01
 8.9094667e+00   4.8453914e+01
 8.9149333e+00   4.7977310e+01
 8.9204000e+00   4.8102877e+01
 8.9258667e+00   4.8260749e+01
 8.9313333e+00   4.7937985e+01
 8.9368000e+00   4.8089438e+01
 8.9422667e+00   4.8097440e+01
 8.9477333e+00   4.8019070e+01
 8.9532000e+00   4.8071397e+01
 8.9586667e+00   4.8299274e+01
 8.9641333e+00   4.7939691e+01
 8.9696000e+00   4.8315138e+01
 8.9750667e+00   4.8193094e+01
 8.9805333e+00   4.8617021e+01
 8.9860000e+00   4.8866909e+01
 8.9914667e+00   5.0286495e+01
 8.9969333e+00   5.1142319e+01
 9.0024000e+00   5.4248848e+01
 9.0078667e+00   5.7110738e+01
 9.0133333e+00   6.3039446e+01
 9.0188000e+00   6.8794408e+01
 9.0242667e+00   7.6509157e+01
 9.0297333e+00   8.0522531e+01
 9.0352000e+00   8.3690470e+01
 9.0406667e+00   8.6892855e+01
 9.0461333e+00   8.5201482e+01
 9.0516000e+00   8.2770406e+01
 9.0570667e+00   7.6176599e+01
 9.0625333e+00   7.0228949e+01
 9.0680000e+00   6.3522980e+01
 9.0734667e+00   5.9739990e+01
 9.0789333e+00   5.5088364e+01
 9.0844000e+00   5.3613610e+01
 9.0898667e+00   5.0328010e+01
 9.0953333e+00   4.9219196e+01
 9.1008000e+00   4.7699655e+01
 9.1062667e+00   4.7461714e+01
 9.1117333e+00   4.6726368e+01
 9.1172000e+00   4.6970568e+01
 9.1226667e+00   4.6549036e+01
 9.1281333e+00   4.6514118e+01
 9.1336000e+00   4.6272677e+01
 9.1390667e+00   4.6340208e+01
 9.1445333e+00   4.5772777e+01
 9.1500000e+00   4.6105837e+01
 9.1554667e+00   4.5793034e+01
 9.1609333e+00   4.5924951e+01
 9.1664000e+00   4.5539764e+01
 9.1718667e+00   4.5825241e+01
 9.1773333e+00   4.5381926e+01
 9.1828000e+00   4.5494958e+01
 9.1882667e+00   4.5269395e+01
 9.1937333e+00   4.5192053e+01
 9.1992000e+00   4.5196422e+01
 9.2046667e+00   4.4928916e+01
 9.2101333e+00   4.5016573e+01
 9.2156000e+00   4.4854591e+01
 9.2210667e+00   4.4651880e+01
 9.2265333e+00   4.4816793e+01
 9.2320000e+00   4.4728354e+01
 9.2374667e+00   4.4656939e+01
 9.2429333e+00   4.4816243e+01
 9.2484000e+00   4.4728920e+01
 9.2538667e+00   4.4719370e+01
 9.2593333e+00   4.4345850e+01
 9.2648000e+00   4.4668128e+01
 9.2702667e+00   4.4530956e+01
 9.2757333e+00   4.4513721e+01
 9.2812000e+00   4.4047005e+01
 9.2866667e+00   4.4699606e+01
 9.2921333e+00   4.3985852e+01
 9.2976000e+00   4.4289157e+01
 9.3030667e+00   4.4071658e+01
 9.3085333e+00   4.4554906e+01
 9.3140000e+00   4.3812517e+01
 9.3194667e+00   4.4569703e+01
 9.3249333e+00   4.4042095e+01
 9.3304000e+00   4.4137709e+01
 9.3358667e+00   4.4109120e+01
 9.3413333e+00   4.4248350e+01
 9.3468000e+00   4.3590041e+01
 9.3522667e+00   4.4236802e+01
 9.3577333e+00   4.3866603e+01
 9.3632000e+00   4.3966589e+01
 9.3686667e+00   4.3876220e+01
 9.3741333e+00   4.4050157e+01
 9.3796000e+00   4.3765522e+01
 9.3850667e+00   4.3849240e+01
 9.3905333e+00   4.4037048e+01
 9.3960000e+00   4.3757450e+01
 9.4014667e+00   4.3958880e+01
 9.4069333e+00   4.3948515e+01
 9.4124000e+00   4.4002028e+01
 9.4178667e+00   4.4057653e+01
 9.4233333e+00   4.4327495e+01
 9.4288000e+00   4.3974776e+01
 9.4342667e+00   4.4437577e+01
 9.4397333e+00   4.4231233e+01
 9.4452000e+00   4.4407580e+01
 9.4506667e+00   4.4361954e+01
 9.4561333e+00   4.4931436e+01
 9.4616000e+00   4.5528493e+01
 9.4670667e+00   4.5789219e+01
 9.4725333e+00   5.2192787e+01
 9.4780000e+00   4.9996947e+01
 9.4834667e+00   5.5863322e+01
 9.4889333e+00   6.4210121e+01
 9.4944000e+00   6.4981638e+01
 9.4998667e+00   9.0597454e+01
 9.5053333e+00   8.5641474e+01
 9.5108000e+00   9.6120558e+01
 9.5162667e+00   8.1259292e+01
 9.5217333e+00   8.3989436e+01
 9.5272000e+00   7.8492696e+01
 9.5326667e+00   8.3625702e+01
 9.5381333e+00   8.2376813e+01
 9.5436000e+00   7.6975958e+01
 9.5490667e+00   9.0495743e+01
 9.5545333e+00   9.8571239e+01
 9.5600000e+00   1.0792163e+02
 9.5654667e+00   9.9028935e+01
 9.5709333e+00   1.0332520e+02
 9.5764000e+00   9.7428228e+01
 9.5818667e+00   8.1788800e+01
 9.5873333e+00   6.6075215e+01
 9.5928000e+00   5.4765409e+01
 9.5982667e+00   5.0769336e+01
 9.6037333e+00   4.5951726e+01
 9.6092000e+00   4.5188453e+01
 9.6146667e+00   4.3898299e+01
 9.6201333e+00   4.3499492e+01
 9.6256000e+00   4.3076566e+01
 9.6310667e+00   4.2861812e+01
 9.6365333e+00   4.2527191e+01
 9.6420000e+00   4.2388934e+01
 9.6474667e+00   4.2379742e+01
 9.6529333e+00   4.2128764e+01
 9.6584000e+00   4.2196784e+01
 9.6638667e+00   4.1993435e+01
 9.6693333e+00   4.1909384e+01
 9.6748000e+00   4.1854410e+01
 9.6802667e+00   4.1730070e+01
 9.6857333e+00   4.1787023e+01
 9.6912000e+00   4.1514446e+01
 9.6966667e+00   4.1539674e+01
 9.7021333e+00   4.1164534e+01
 9.7076000e+00   4.1314292e+01
 9.7130667e+00   4.1240847e+01
 9.7185333e+00   4.1031585e+01
 9.7240000e+00   4.0909000e+01
 9.7294667e+00   4.0994387e+01
 9.7349333e+00   4.0755826e+01
 9.7404000e+00   4.0741063e+01
 9.7458667e+00   4.0889864e+01
 9.7513333e+00   4.0522317e+01
 9.7568000e+00   4.0528838e+01
 9.7622667e+00   4.0412771e+01
 9.7677333e+00   4.0430157e+01
 9.7732000e+00   4.0319424e+01
 9.7786667e+00   4.0189600e+01
 9.7841333e+00   4.0178486e+01
 9.7896000e+00   4.0163290e+01
 9.7950667e+00   4.0044133e+01
 9.8005333e+00   4.0140525e+01
 9.8060000e+00   4.0020239e+01
 9.8114667e+00   4.0152277e+01
 9.8169333e+00   4.0050768e+01
 9.8224000e+00   4.0065655e+01
 9.8278667e+00   3.9913615e+01
 9.8333333e+00   4.0263948e+01
 9.8388000e+00   3.9949784e+01
 9.8442667e+00   4.0081681e+01
 9.8497333e+00   3.9946475e+01
 9.8552000e+00   4.0212310e+01
 9.8606667e+00   3.9974504e+01
 9.8661333e+00   4.0363761e+01
 9.8716000e+00   4.0194615e+01
 9.8770667e+00   4.0490262e+01
 9.8825333e+00   4.0258797e+01
 9.8880000e+00   4.0533772e+01
 9.8934667e+00   4.1020741e+01
 9.8989333e+00   4.0996297e+01
 9.9044000e+00   4.1643022e+01
 9.9098667e+00   4.2123543e+01
 9.9153333e+00   4.5042513e+01
 9.9208000e+00   4.5255290e+01
 9.9262667e+00   5.1384797e+01
 9.9317333e+00   5.2089473e+01
 9.9372000e+00   6.4871474e+01
 9.9426667e+00   7.1030508e+01
 9.9481333e+00   6.8437462e+01
 9.9536000e+00   8.4095112e+01
 9.9590667e+00   7.4497574e+01
 9.9645333e+00   7.1689915e+01
 9.9700000e+00   7.1018478e+01
 9.9754667e+00   6.2613527e+01
 9.9809333e+00   6.5215246e+01
 9.9864000e+00   6.4143030e+01
 9.9918667e+00   5.7896944e+01
 9.9973333e+00   5.7896035e+01
 1.0002800e+01   4.6951380e+01
 1.0008267e+01   4.4679298e+01
 1.0013733e+01   4.3947164e+01
 1.0019200e+01   4.2477957e+01
 1.0024667e+01   4.1475864e+01
 1.0030133e+01   4.0892653e+01
 1.0035600e+01   4.1030907e+01
 1.0041067e+01   4.0423730e+01
 1.0046533e+01   4.0518351e+01
 1.0052000e+01   4.0830089e+01
 1.0057467e+01   4.0978663e+01
 1.0062933e+01   4.1612899e+01
 1.0068400e+01   4.3758249e+01
 1.0073867e+01   4.5581796e+01
 1.0079333e+01   4.8792605e+01
 1.0084800e+01   5.2939925e+01
 1.0090267e+01   5.8058048e+01
 1.0095733e+01   6.2670189e+01
 1.0101200e+01   6.7185302e+01
 1.0106667e+01   7.1022003e+01
 1.0112133e+01   7.3175008e+01
 1.0117600e+01   7.3846909e+01
 1.0123067e+01   7.1674164e+01
 1.0128533e+01   6.7673470e+01
 1.0134000e+01   6.2327796e+01
 1.0139467e+01   5.6975072e+01
 1.0144933e+01   5.2062362e+01
 1.0150400e+01   4.7544256e+01
 1.0155867e+01   4.3962383e+01
 1.0161333e+01   4.1469922e+01
 1.0166800e+01   4.0214654e+01
 1.0172267e+01   3.9412856e+01
 1.0177733e+01   3.9118257e+01
 1.0183200e+01   3.8889108e+01
 1.0188667e+01   3.8743142e+01
 1.0194133e+01   3.8585066e+01
 1.0199600e+01   3.8609748e+01
 1.0205067e+01   3.8307563e+01
 1.0210533e+01   3.8315423e+01
 1.0216000e+01   3.7841630e+01
 1.0221467e+01   3.8188182e+01
 1.0226933e+01   3.7620187e+01
 1.0232400e+01   3.7974811e+01
 1.0237867e+01   3.7531697e+01
 1.0243333e+01   3.7776034e+01
 1.0248800e+01   3.7496763e+01
 1.0254267e+01   3.7676079e+01
 1.0259733e+01   3.7343737e+01
 1.0265200e+01   3.7442358e+01
 1.0270667e+01   3.7370836e+01
 1.0276133e+01   3.7308182e+01
 1.0281600e+01   3.7083037e+01
 1.0287067e+01   3.7251343e+01
 1.0292533e+01   3.7038137e+01
 1.0298000e+01   3.7232860e+01
 1.0303467e+01   3.7039189e+01
 1.0308933e+01   3.7124832e+01
 1.0314400e+01   3.6988444e+01
 1.0319867e+01   3.7096910e+01
 1.0325333e+01   3.6997412e+01
 1.0330800e+01   3.7064437e+01
 1.0336267e+01   3.6814781e+01
 1.0341733e+01   3.6750255e+01
 1.0347200e+01   3.6838476e+01
 1.0352667e+01   3.6792375e+01
 1.0358133e+01   3.6742284e+01
 1.0363600e+01   3.6576175e+01
 1.0369067e+01   3.6916834e+01
 1.0374533e+01   3.6596757e+01
 1.0380000e+01   3.6778920e+01
 1.0385467e+01   3.6443160e+01
 1.0390933e+01   3.6712268e+01
 1.0396400e+01   3.6606223e+01
 1.0401867e+01   3.6367749e+01
 1.0407333e+01   3.6536187e+01
 1.0412800e+01   3.6318803e+01
 1.0418267e+01   3.6374291e+01
 1.0423733e+01   3.6352725e+01
 1.0429200e+01   3.6472125e+01
 1.0434667e+01   3.6395299e+01
 1.0440133e+01   3.6410354e+01
 1.0445600e+01   3.6002687e+01
 1.0451067e+01   3.6299455e+01
 1.0456533e+01   3.6149490e+01
 1.0462000e+01   3.5973519e+01
 1.0467467e+01   3.6205747e+01
 1.0472933e+01   3.6093860e+01
 1.0478400e+01   3.6336043e+01
 1.0483867e+01   3.6200887e+01
 1.0489333e+01   3.6232179e+01
 1.0494800e+01   3.6222424e+01
 1.0500267e+01   3.6024430e+01
 1.0505733e+01   3.6173432e+01
 1.0511200e+01   3.6025644e+01
 1.0516667e+01   3.6011465e+01
 1.0522133e+01   3.5982867e+01
 1.0527600e+01   3.6104788e+01
 1.0533067e+01   3.6047428e+01
 1.0538533e+01   3.6192138e+01
 1.0544000e+01   3.6055701e+01
 1.0549467e+01   3.6113074e+01
 1.0554933e+01   3.6016351e+01
 1.0560400e+01   3.5940577e+01
 1.0565867e+01   3.5875771e+01
 1.0571333e+01   3.5881187e+01
 1.0576800e+01   3.5986584e+01
 1.0582267e+01   3.5805782e+01
 1.0587733e+01   3.6005976e+01
 1.0593200e+01   3.5929031e+01
 1.0598667e+01   3.5933689e+01
 1.0604133e+01   3.5919008e+01
 1.0609600e+01   3.5899151e+01
 1.0615067e+01   3.5677007e+01
 1.0620533e+01   3.5947731e+01
 1.0626000e+01   3.5644774e+01
 1.0631467e+01   3.5741545e+01
 1.0636933e+01   3.5868742e+01
 1.0642400e+01   3.5649322e+01
 1.0647867e+01   3.5653465e+01
 1.0653333e+01   3.5737068e+01
 1.0658800e+01   3.5789579e+01
 1.0664267e+01   3.5792209e+01
 1.0669733e+01   3.5668602e+01
 1.0675200e+01   3.5807513e+01
 1.0680667e+01   3.5637631e+01
 1.0686133e+01   3.5687469e+01
 1.0691600e+01   3.5722267e+01
 1.0697067e+01   3.5537415e+01
 1.0702533e+01   3.5787211e+01
 1.0708000e+01   3.5761901e+01
 1.0713467e+01   3.5702279e+01
 1.0718933e+01   3.6133717e+01
 1.0724400e+01   3.5849865e+01
 1.0729867e+01   3.5981651e+01
 1.0735333e+01   3.5721111e+01
 1.0740800e+01   3.5969748e+01
 1.0746267e+01   3.5585108e+01
 1.0751733e+01   3.5718235e+01
 1.0757200e+01   3.5464462e+01
 1.0762667e+01   3.5787155e+01
 1.0768133e+01   3.5790166e+01
 1.0773600e+01   3.5612430e+01
 1.0779067e+01   3.5916011e+01
 1.0784533e+01   3.5691587e+01
 1.0790000e+01   3.5779693e+01
 1.0795467e+01   3.5645254e+01
 1.0800933e+01   3.5718830e+01
 1.0806400e+01   3.5516049e+01
 1.0811867e+01   3.5625998e+01
 1.0817333e+01   3.5359187e+01
 1.0822800e+01   3.5784071e+01
 1.0828267e+01   3.5443567e+01
 1.0833733e+01   3.5898818e+01
 1.0839200e+01   3.5675644e+01
 1.0844667e+01   3.5685033e+01
 1.0850133e+01   3.5718823e+01
 1.0855600e+01   3.5809050e+01
 1.0861067e+01   3.5529394e+01
 1.0866533e+01   3.5764386e+01
 1.0872000e+01   3.5719497e+01
 1.0877467e+01   3.5741169e+01
 1.0882933e+01   3.5711199e+01
 1.0888400e+01   3.5949447e+01
 1.0893867e+01   3.5646734e+01
 1.0899333e+01   3.6144036e+01
 1.0904800e+01   3.5702983e+01
 1.0910267e+01   3.6057595e+01
 1.0915733e+01   3.5826465e+01
 1.0921200e+01   3.6011307e+01
 1.0926667e+01   3.5783285e+01
 1.0932133e+01   3.6049253e+01
 1.0937600e+01   3.5705726e+01
 1.0943067e+01   3.6057377e+01
 1.0948533e+01   3.5835424e+01
 1.0954000e+01   3.6173854e+01
 1.0959467e+01   3.6157264e+01
 1.0964933e+01   3.5994914e+01
 1.0970400e+01   3.6158864e+01
 1.0975867e+01   3.6259297e+01
 1.0981333e+01   3.6319333e+01
 1.0986800e+01   3.6324982e+01
 1.0992267e+01   3.6269059e+01
 1.0997733e+01   3.6264918e+01
 1.1003200e+01   3.6337171e+01
 1.1008667e+01   3.6171728e+01
 1.1014133e+01   3.6266228e+01
 1.1019600e+01   3.6580384e+01
 1.1025067e+01   3.6418791e+01
 1.1030533e+01   3.6687362e+01
 1.1036000e+01   3.6712073e+01
 1.1041467e+01   3.7163392e+01
 1.1046933e+01   3.7513954e+01
 1.1052400e+01   3.8674738e+01
 1.1057867e+01   3.9408939e+01
 1.1063333e+01   4.0764711e+01
 1.1068800e+01   4.1341999e+01
 1.1074267e+01   4.1826589e+01
 1.1079733e+01   4.1899341e+01
 1.1085200e+01   4.1851246e+01
 1.1090667e+01   4.1744671e+01
 1.1096133e+01   4.1215819e+01
 1.1101600e+01   4.0180581e+01
 1.1107067e+01   3.9723092e+01
 1.1112533e+01   3.8483176e+01
 1.1118000e+01   3.7835789e+01
 1.1123467e+01   3.7548640e+01
 1.1128933e+01   3.6967322e+01
 1.1134400e+01   3.6840505e+01
 1.1139867e+01   3.6727340e+01
 1.1145333e+01   3.6705159e+01
 1.1150800e+01   3.6491486e+01
 1.1156267e+01   3.6662941e+01
 1.1161733e+01   3.6548877e+01
 1.1167200e+01   3.6627644e+01
 1.1172667e+01   3.6247826e+01
 1.1178133e+01   3.6702955e+01
 1.1183600e+01   3.6477720e+01
 1.1189067e+01   3.6571110e+01
 1.1194533e+01   3.6354932e+01
