PWDR ff_004563_sum_norm_dc_0.tif Azm= 352.fxye Bank 1
2-Theta Angle (Degrees)
Intensity
       1500
 3.0000000e+00   4.6776197e+01
 3.0054667e+00   4.6358519e+01
 3.0109333e+00   4.6471745e+01
 3.0164000e+00   4.6312026e+01
 3.0218667e+00   4.6073630e+01
 3.0273333e+00   4.5966536e+01
 3.0328000e+00   4.5750495e+01
 3.0382667e+00   4.5652188e+01
 3.0437333e+00   4.5211888e+01
 3.0492000e+00   4.5314302e+01
 3.0546667e+00   4.4834321e+01
 3.0601333e+00   4.5049804e+01
 3.0656000e+00   4.5826624e+01
 3.0710667e+00   4.3973169e+01
 3.0765333e+00   4.4217631e+01
 3.0820000e+00   4.3732474e+01
 3.0874667e+00   4.3417232e+01
 3.0929333e+00   4.3261849e+01
 3.0984000e+00   4.3061841e+01
 3.1038667e+00   4.2968834e+01
 3.1093333e+00   4.2829360e+01
 3.1148000e+00   4.2589114e+01
 3.1202667e+00   4.2529143e+01
 3.1257333e+00   4.2443616e+01
 3.1312000e+00   4.2154015e+01
 3.1366667e+00   4.2204997e+01
 3.1421333e+00   4.2177834e+01
 3.1476000e+00   4.1790293e+01
 3.1530667e+00   4.2359522e+01
 3.1585333e+00   4.1400804e+01
 3.1640000e+00   4.1545521e+01
 3.1694667e+00   4.1135294e+01
 3.1749333e+00   4.1277628e+01
 3.1804000e+00   4.0856140e+01
 3.1858667e+00   4.0925703e+01
 3.1913333e+00   4.0653125e+01
 3.1968000e+00   4.0732939e+01
 3.2022667e+00   4.0526303e+01
 3.2077333e+00   4.0659685e+01
 3.2132000e+00   4.0478754e+01
 3.2186667e+00   4.0434975e+01
 3.2241333e+00   4.0266622e+01
 3.2296000e+00   4.0049029e+01
 3.2350667e+00   3.9967955e+01
 3.2405333e+00   3.9752161e+01
 3.2460000e+00   3.9709631e+01
 3.2514667e+00   3.9474822e+01
 3.2569333e+00   3.9425028e+01
 3.2624000e+00   3.9300881e+01
 3.2678667e+00   3.9357993e+01
 3.2733333e+00   3.9223859e+01
 3.2788000e+00   3.9027576e+01
 3.2842667e+00   3.9017632e+01
 3.2897333e+00   3.8729648e+01
 3.2952000e+00   3.8713070e+01
 3.3006667e+00   3.8535639e+01
 3.3061333e+00   3.8524936e+01
 3.3116000e+00   3.8332023e+01
 3.3170667e+00   3.8564773e+01
 3.3225333e+00   3.8279003e+01
 3.3280000e+00   3.8204019e+01
 3.3334667e+00   3.7993419e+01
 3.3389333e+00   3.8420439e+01
 3.3444000e+00   3.8049422e+01
 3.3498667e+00   3.8089364e+01
 3.3553333e+00   3.8020681e+01
 3.3608000e+00   3.7888063e+01
 3.3662667e+00   3.7902255e+01
 3.3717333e+00   3.7876280e+01
 3.3772000e+00   3.7806241e+01
 3.3826667e+00   3.7774971e+01
 3.3881333e+00   3.7568158e+01
 3.3936000e+00   3.7629568e+01
 3.3990667e+00   3.7543300e+01
 3.4045333e+00   3.7407844e+01
 3.4100000e+00   3.7418888e+01
 3.4154667e+00   3.7283313e+01
 3.4209333e+00   3.7471742e+01
 3.4264000e+00   3.7237155e+01
 3.4318667e+00   3.7059617e+01
 3.4373333e+00   3.7152833e+01
 3.4428000e+00   3.6871813e+01
 3.4482667e+00   3.7093033e+01
 3.4537333e+00   3.6901539e+01
 3.4592000e+00   3.6936260e+01
 3.4646667e+00   3.6861245e+01
 3.4701333e+00   3.7027946e+01
 3.4756000e+00   3.6928568e+01
 3.4810667e+00   3.6884477e+01
 3.4865333e+00   3.6870446e+01
 3.4920000e+00   3.6973472e+01
 3.4974667e+00   3.6834360e+01
 3.5029333e+00   3.7113535e+01
 3.5084000e+00   3.6989316e+01
 3.5138667e+00   3.6775503e+01
 3.5193333e+00   3.6877302e+01
 3.5248000e+00   3.6755742e+01
 3.5302667e+00   3.6926644e+01
 3.5357333e+00   3.6814893e+01
 3.5412000e+00   3.6999708e+01
 3.5466667e+00   3.6895488e+01
 3.5521333e+00   3.6870759e+01
 3.5576000e+00   3.6878103e+01
 3.5630667e+00   3.7057614e+01
 3.5685333e+00   3.6972959e+01
 3.5740000e+00   3.7188630e+01
 3.5794667e+00   3.6770111e+01
 3.5849333e+00   3.6913176e+01
 3.5904000e+00   3.6595475e+01
 3.5958667e+00   3.6773398e+01
 3.6013333e+00   3.6561994e+01
 3.6068000e+00   3.6591259e+01
 3.6122667e+00   3.6594533e+01
 3.6177333e+00   3.6501898e+01
 3.6232000e+00   3.6554988e+01
 3.6286667e+00   3.6402614e+01
 3.6341333e+00   3.6495832e+01
 3.6396000e+00   3.6468674e+01
 3.6450667e+00   3.6557659e+01
 3.6505333e+00   3.6517526e+01
 3.6560000e+00   3.6614234e+01
 3.6614667e+00   3.6671068e+01
 3.6669333e+00   3.6584040e+01
 3.6724000e+00   3.6734869e+01
 3.6778667e+00   3.6744650e+01
 3.6833333e+00   3.6793352e+01
 3.6888000e+00   3.6633478e+01
 3.6942667e+00   3.6769638e+01
 3.6997333e+00   3.6781959e+01
 3.7052000e+00   3.6762959e+01
 3.7106667e+00   3.6774130e+01
 3.7161333e+00   3.6733930e+01
 3.7216000e+00   3.6743240e+01
 3.7270667e+00   3.6919220e+01
 3.7325333e+00   3.6901199e+01
 3.7380000e+00   3.6886178e+01
 3.7434667e+00   3.6979133e+01
 3.7489333e+00   3.7029712e+01
 3.7544000e+00   3.7069373e+01
 3.7598667e+00   3.7009741e+01
 3.7653333e+00   3.7167514e+01
 3.7708000e+00   3.6988532e+01
 3.7762667e+00   3.7374876e+01
 3.7817333e+00   3.6980805e+01
 3.7872000e+00   3.7241497e+01
 3.7926667e+00   3.7087700e+01
 3.7981333e+00   3.7275374e+01
 3.8036000e+00   3.7413835e+01
 3.8090667e+00   3.7371619e+01
 3.8145333e+00   3.7530345e+01
 3.8200000e+00   3.7397626e+01
 3.8254667e+00   3.7581419e+01
 3.8309333e+00   3.7493593e+01
 3.8364000e+00   3.7594559e+01
 3.8418667e+00   3.7823857e+01
 3.8473333e+00   3.7875689e+01
 3.8528000e+00   3.7902562e+01
 3.8582667e+00   3.8065091e+01
 3.8637333e+00   3.8086313e+01
 3.8692000e+00   3.8266174e+01
 3.8746667e+00   3.8208206e+01
 3.8801333e+00   3.8603112e+01
 3.8856000e+00   3.8343239e+01
 3.8910667e+00   3.8603427e+01
 3.8965333e+00   3.8624994e+01
 3.9020000e+00   3.9058018e+01
 3.9074667e+00   3.9140555e+01
 3.9129333e+00   3.9459017e+01
 3.9184000e+00   3.9717518e+01
 3.9238667e+00   3.9563823e+01
 3.9293333e+00   3.9903540e+01
 3.9348000e+00   3.9664694e+01
 3.9402667e+00   3.9750480e+01
 3.9457333e+00   3.9781242e+01
 3.9512000e+00   3.9932587e+01
 3.9566667e+00   3.9803177e+01
 3.9621333e+00   3.9845105e+01
 3.9676000e+00   3.9846405e+01
 3.9730667e+00   4.0033636e+01
 3.9785333e+00   4.0039361e+01
 3.9840000e+00   4.0194780e+01
 3.9894667e+00   4.0292917e+01
 3.9949333e+00   4.0495396e+01
 4.0004000e+00   4.0535689e+01
 4.0058667e+00   4.0721371e+01
 4.0113333e+00   4.0828423e+01
 4.0168000e+00   4.0923479e+01
 4.0222667e+00   4.1248209e+01
 4.0277333e+00   4.1214451e+01
 4.0332000e+00   4.1662906e+01
 4.0386667e+00   4.1723217e+01
 4.0441333e+00   4.2543433e+01
 4.0496000e+00   4.2938414e+01
 4.0550667e+00   4.4183989e+01
 4.0605333e+00   4.5409535e+01
 4.0660000e+00   4.9944949e+01
 4.0714667e+00   5.4200431e+01
 4.0769333e+00   6.4696020e+01
 4.0824000e+00   8.0294356e+01
 4.0878667e+00   9.8806351e+01
 4.0933333e+00   1.3108357e+02
 4.0988000e+00   1.8892349e+02
 4.1042667e+00   2.0481412e+02
 4.1097333e+00   2.4579290e+02
 4.1152000e+00   2.3861703e+02
 4.1206667e+00   2.6078337e+02
 4.1261333e+00   2.4162037e+02
 4.1316000e+00   2.3465839e+02
 4.1370667e+00   2.3216435e+02
 4.1425333e+00   2.2010372e+02
 4.1480000e+00   1.5507476e+02
 4.1534667e+00   1.3855242e+02
 4.1589333e+00   9.5124576e+01
 4.1644000e+00   6.7786821e+01
 4.1698667e+00   5.8104279e+01
 4.1753333e+00   5.1211318e+01
 4.1808000e+00   4.8381035e+01
 4.1862667e+00   4.7510718e+01
 4.1917333e+00   4.6639518e+01
 4.1972000e+00   4.6301951e+01
 4.2026667e+00   4.5971723e+01
 4.2081333e+00   4.5972032e+01
 4.2136000e+00   4.5831136e+01
 4.2190667e+00   4.5928374e+01
 4.2245333e+00   4.5538552e+01
 4.2300000e+00   4.5715403e+01
 4.2354667e+00   4.5564434e+01
 4.2409333e+00   4.5546371e+01
 4.2464000e+00   4.5597989e+01
 4.2518667e+00   4.5625984e+01
 4.2573333e+00   4.5719154e+01
 4.2628000e+00   4.5974447e+01
 4.2682667e+00   4.5946654e+01
 4.2737333e+00   4.5833275e+01
 4.2792000e+00   4.6088579e+01
 4.2846667e+00   4.5936951e+01
 4.2901333e+00   4.6412486e+01
 4.2956000e+00   4.6002778e+01
 4.3010667e+00   4.6950319e+01
 4.3065333e+00   4.6306269e+01
 4.3120000e+00   4.9013387e+01
 4.3174667e+00   4.6417013e+01
 4.3229333e+00   4.8510031e+01
 4.3284000e+00   4.6754737e+01
 4.3338667e+00   4.7586477e+01
 4.3393333e+00   4.7249188e+01
 4.3448000e+00   4.7750360e+01
 4.3502667e+00   4.7641095e+01
 4.3557333e+00   4.7988925e+01
 4.3612000e+00   4.8268406e+01
 4.3666667e+00   4.8365906e+01
 4.3721333e+00   4.9156281e+01
 4.3776000e+00   4.8990047e+01
 4.3830667e+00   5.0009300e+01
 4.3885333e+00   4.9999030e+01
 4.3940000e+00   5.1418196e+01
 4.3994667e+00   5.1883596e+01
 4.4049333e+00   5.4105753e+01
 4.4104000e+00   5.7665942e+01
 4.4158667e+00   6.5260821e+01
 4.4213333e+00   7.9318211e+01
 4.4268000e+00   9.9865703e+01
 4.4322667e+00   1.3774911e+02
 4.4377333e+00   1.7381979e+02
 4.4432000e+00   2.0548116e+02
 4.4486667e+00   2.2826431e+02
 4.4541333e+00   2.4606297e+02
 4.4596000e+00   2.8132203e+02
 4.4650667e+00   2.9348998e+02
 4.4705333e+00   3.4085066e+02
 4.4760000e+00   3.6613139e+02
 4.4814667e+00   3.2663910e+02
 4.4869333e+00   3.0585960e+02
 4.4924000e+00   1.6579148e+02
 4.4978667e+00   1.3994491e+02
 4.5033333e+00   8.6072778e+01
 4.5088000e+00   9.3251079e+01
 4.5142667e+00   1.0404093e+02
 4.5197333e+00   1.2635194e+02
 4.5252000e+00   1.5294641e+02
 4.5306667e+00   1.8066206e+02
 4.5361333e+00   1.9483327e+02
 4.5416000e+00   2.0605646e+02
 4.5470667e+00   2.1593459e+02
 4.5525333e+00   2.6010138e+02
 4.5580000e+00   2.4601141e+02
 4.5634667e+00   2.6598961e+02
 4.5689333e+00   2.9388061e+02
 4.5744000e+00   2.1463002e+02
 4.5798667e+00   2.1045502e+02
 4.5853333e+00   1.1924484e+02
 4.5908000e+00   1.1056694e+02
 4.5962667e+00   7.7413195e+01
 4.6017333e+00   7.6787319e+01
 4.6072000e+00   6.9454957e+01
 4.6126667e+00   6.9734613e+01
 4.6181333e+00   7.1496657e+01
 4.6236000e+00   7.6330714e+01
 4.6290667e+00   8.7399189e+01
 4.6345333e+00   1.1205467e+02
 4.6400000e+00   1.6422869e+02
 4.6454667e+00   2.6117314e+02
 4.6509333e+00   3.7780807e+02
 4.6564000e+00   5.0883075e+02
 4.6618667e+00   6.5749353e+02
 4.6673333e+00   7.4443328e+02
 4.6728000e+00   7.9662577e+02
 4.6782667e+00   8.3564957e+02
 4.6837333e+00   8.5695570e+02
 4.6892000e+00   8.5415721e+02
 4.6946667e+00   8.9583096e+02
 4.7001333e+00   7.3357642e+02
 4.7056000e+00   6.9544149e+02
 4.7110667e+00   4.2920260e+02
 4.7165333e+00   3.5910025e+02
 4.7220000e+00   2.0625074e+02
 4.7274667e+00   1.8298146e+02
 4.7329333e+00   1.1412844e+02
 4.7384000e+00   9.1756162e+01
 4.7438667e+00   7.7365717e+01
 4.7493333e+00   6.9239984e+01
 4.7548000e+00   6.8691286e+01
 4.7602667e+00   6.3190239e+01
 4.7657333e+00   6.5378390e+01
 4.7712000e+00   6.1552470e+01
 4.7766667e+00   6.3340594e+01
 4.7821333e+00   6.1477582e+01
 4.7876000e+00   6.1875355e+01
 4.7930667e+00   6.1689745e+01
 4.7985333e+00   6.0982377e+01
 4.8040000e+00   6.3090551e+01
 4.8094667e+00   5.8737442e+01
 4.8149333e+00   6.4789200e+01
 4.8204000e+00   5.9354636e+01
 4.8258667e+00   6.4720363e+01
 4.8313333e+00   6.0308984e+01
 4.8368000e+00   6.5607535e+01
 4.8422667e+00   6.1054757e+01
 4.8477333e+00   6.5931071e+01
 4.8532000e+00   6.3090062e+01
 4.8586667e+00   6.5856705e+01
 4.8641333e+00   6.5753248e+01
 4.8696000e+00   6.6431168e+01
 4.8750667e+00   6.8653527e+01
 4.8805333e+00   6.6109482e+01
 4.8860000e+00   7.3051119e+01
 4.8914667e+00   6.5144037e+01
 4.8969333e+00   7.6619676e+01
 4.9024000e+00   6.7953741e+01
 4.9078667e+00   7.9921998e+01
 4.9133333e+00   7.1968994e+01
 4.9188000e+00   8.5353203e+01
 4.9242667e+00   7.9967386e+01
 4.9297333e+00   9.3275245e+01
 4.9352000e+00   1.0829031e+02
 4.9406667e+00   1.1420240e+02
 4.9461333e+00   1.5197718e+02
 4.9516000e+00   1.5312839e+02
 4.9570667e+00   2.3888172e+02
 4.9625333e+00   2.3986034e+02
 4.9680000e+00   2.7567620e+02
 4.9734667e+00   3.7770676e+02
 4.9789333e+00   3.6518883e+02
 4.9844000e+00   4.6926237e+02
 4.9898667e+00   5.1686665e+02
 4.9953333e+00   5.3555096e+02
 5.0008000e+00   5.8585437e+02
 5.0062667e+00   5.8068837e+02
 5.0117333e+00   5.5957618e+02
 5.0172000e+00   4.8346904e+02
 5.0226667e+00   4.0816658e+02
 5.0281333e+00   3.9788611e+02
 5.0336000e+00   2.5720247e+02
 5.0390667e+00   2.8599305e+02
 5.0445333e+00   1.7073407e+02
 5.0500000e+00   1.9303066e+02
 5.0554667e+00   1.0554926e+02
 5.0609333e+00   1.2221561e+02
 5.0664000e+00   8.0451349e+01
 5.0718667e+00   9.9328214e+01
 5.0773333e+00   7.2047320e+01
 5.0828000e+00   8.6928727e+01
 5.0882667e+00   6.9945979e+01
 5.0937333e+00   7.8145862e+01
 5.0992000e+00   6.8888753e+01
 5.1046667e+00   7.2132914e+01
 5.1101333e+00   6.7022092e+01
 5.1156000e+00   6.7504438e+01
 5.1210667e+00   6.5481216e+01
 5.1265333e+00   6.4222147e+01
 5.1320000e+00   6.3910751e+01
 5.1374667e+00   6.1639506e+01
 5.1429333e+00   6.2456585e+01
 5.1484000e+00   5.8554953e+01
 5.1538667e+00   6.1323126e+01
 5.1593333e+00   5.5342435e+01
 5.1648000e+00   6.1429780e+01
 5.1702667e+00   5.3682942e+01
 5.1757333e+00   5.9991591e+01
 5.1812000e+00   5.3080643e+01
 5.1866667e+00   5.7427172e+01
 5.1921333e+00   5.2884800e+01
 5.1976000e+00   5.5845294e+01
 5.2030667e+00   5.1869419e+01
 5.2085333e+00   5.4150706e+01
 5.2140000e+00   5.1198150e+01
 5.2194667e+00   5.2813244e+01
 5.2249333e+00   5.1062789e+01
 5.2304000e+00   5.1090753e+01
 5.2358667e+00   5.0859508e+01
 5.2413333e+00   4.9850905e+01
 5.2468000e+00   5.0632592e+01
 5.2522667e+00   4.7837299e+01
 5.2577333e+00   5.1276174e+01
 5.2632000e+00   4.7301880e+01
 5.2686667e+00   5.0041430e+01
 5.2741333e+00   4.7186293e+01
 5.2796000e+00   4.9182782e+01
 5.2850667e+00   4.6825765e+01
 5.2905333e+00   4.8377783e+01
 5.2960000e+00   4.6445816e+01
 5.3014667e+00   4.7673443e+01
 5.3069333e+00   4.6537508e+01
 5.3124000e+00   4.6874682e+01
 5.3178667e+00   4.6162823e+01
 5.3233333e+00   4.6643316e+01
 5.3288000e+00   4.5844909e+01
 5.3342667e+00   4.5654467e+01
 5.3397333e+00   4.6082690e+01
 5.3452000e+00   4.4434533e+01
 5.3506667e+00   4.6256925e+01
 5.3561333e+00   4.4275887e+01
 5.3616000e+00   4.5640799e+01
 5.3670667e+00   4.4133835e+01
 5.3725333e+00   4.5184599e+01
 5.3780000e+00   4.3871717e+01
 5.3834667e+00   4.4720840e+01
 5.3889333e+00   4.3783608e+01
 5.3944000e+00   4.3899668e+01
 5.3998667e+00   4.3503350e+01
 5.4053333e+00   4.3810599e+01
 5.4108000e+00   4.3286858e+01
 5.4162667e+00   4.3272690e+01
 5.4217333e+00   4.3308393e+01
 5.4272000e+00   4.2657481e+01
 5.4326667e+00   4.3356245e+01
 5.4381333e+00   4.2258020e+01
 5.4436000e+00   4.3273614e+01
 5.4490667e+00   4.2301092e+01
 5.4545333e+00   4.3067841e+01
 5.4600000e+00   4.2148504e+01
 5.4654667e+00   4.2884665e+01
 5.4709333e+00   4.1994309e+01
 5.4764000e+00   4.2463122e+01
 5.4818667e+00   4.1908379e+01
 5.4873333e+00   4.2387518e+01
 5.4928000e+00   4.1782027e+01
 5.4982667e+00   4.2194339e+01
 5.5037333e+00   4.1953732e+01
 5.5092000e+00   4.1770622e+01
 5.5146667e+00   4.2000876e+01
 5.5201333e+00   4.1501342e+01
 5.5256000e+00   4.2041360e+01
 5.5310667e+00   4.1303343e+01
 5.5365333e+00   4.2467582e+01
 5.5420000e+00   4.1552586e+01
 5.5474667e+00   4.5632367e+01
 5.5529333e+00   4.1460101e+01
 5.5584000e+00   4.3007348e+01
 5.5638667e+00   4.1318305e+01
 5.5693333e+00   4.1710670e+01
 5.5748000e+00   4.1254011e+01
 5.5802667e+00   4.1274318e+01
 5.5857333e+00   4.1203117e+01
 5.5912000e+00   4.1239280e+01
 5.5966667e+00   4.1247165e+01
 5.6021333e+00   4.1070969e+01
 5.6076000e+00   4.1378455e+01
 5.6130667e+00   4.0672559e+01
 5.6185333e+00   4.1545954e+01
 5.6240000e+00   4.0808288e+01
 5.6294667e+00   4.1304864e+01
 5.6349333e+00   4.0842367e+01
 5.6404000e+00   4.1308010e+01
 5.6458667e+00   4.0894058e+01
 5.6513333e+00   4.1298699e+01
 5.6568000e+00   4.0990004e+01
 5.6622667e+00   4.1229415e+01
 5.6677333e+00   4.1253451e+01
 5.6732000e+00   4.1545624e+01
 5.6786667e+00   4.2087669e+01
 5.6841333e+00   4.3450686e+01
 5.6896000e+00   4.3736399e+01
 5.6950667e+00   4.9463893e+01
 5.7005333e+00   4.6210613e+01
 5.7060000e+00   4.9321800e+01
 5.7114667e+00   5.2893299e+01
 5.7169333e+00   6.4467710e+01
 5.7224000e+00   6.7728042e+01
 5.7278667e+00   8.2027460e+01
 5.7333333e+00   1.1710574e+02
 5.7388000e+00   1.1120225e+02
 5.7442667e+00   1.2186179e+02
 5.7497333e+00   1.5246400e+02
 5.7552000e+00   1.3933183e+02
 5.7606667e+00   1.4430350e+02
 5.7661333e+00   1.7281191e+02
 5.7716000e+00   1.5462851e+02
 5.7770667e+00   1.8471273e+02
 5.7825333e+00   1.3535363e+02
 5.7880000e+00   1.2146591e+02
 5.7934667e+00   1.1473803e+02
 5.7989333e+00   8.6874137e+01
 5.8044000e+00   9.3020965e+01
 5.8098667e+00   7.8971455e+01
 5.8153333e+00   7.1770651e+01
 5.8208000e+00   5.3109503e+01
 5.8262667e+00   5.0209939e+01
 5.8317333e+00   4.4862131e+01
 5.8372000e+00   4.2894101e+01
 5.8426667e+00   4.1737239e+01
 5.8481333e+00   4.1090504e+01
 5.8536000e+00   4.0890907e+01
 5.8590667e+00   4.0486081e+01
 5.8645333e+00   4.0499121e+01
 5.8700000e+00   3.9902919e+01
 5.8754667e+00   4.0041130e+01
 5.8809333e+00   3.9528280e+01
 5.8864000e+00   3.9727162e+01
 5.8918667e+00   3.9183253e+01
 5.8973333e+00   3.9474819e+01
 5.9028000e+00   3.9105328e+01
 5.9082667e+00   3.9134204e+01
 5.9137333e+00   3.8944388e+01
 5.9192000e+00   3.8963183e+01
 5.9246667e+00   3.8870992e+01
 5.9301333e+00   3.9013491e+01
 5.9356000e+00   3.8735568e+01
 5.9410667e+00   3.8806759e+01
 5.9465333e+00   3.8855773e+01
 5.9520000e+00   3.8715197e+01
 5.9574667e+00   3.8784775e+01
 5.9629333e+00   3.8707559e+01
 5.9684000e+00   3.8890303e+01
 5.9738667e+00   3.8631418e+01
 5.9793333e+00   3.8925843e+01
 5.9848000e+00   3.8634861e+01
 5.9902667e+00   3.9100684e+01
 5.9957333e+00   3.8894650e+01
 6.0012000e+00   3.9254427e+01
 6.0066667e+00   3.9497540e+01
 6.0121333e+00   4.0032380e+01
 6.0176000e+00   4.1109829e+01
 6.0230667e+00   4.2655458e+01
 6.0285333e+00   4.5645532e+01
 6.0340000e+00   5.3083398e+01
 6.0394667e+00   6.1571991e+01
 6.0449333e+00   7.3538373e+01
 6.0504000e+00   9.6593132e+01
 6.0558667e+00   1.1773237e+02
 6.0613333e+00   1.3903683e+02
 6.0668000e+00   1.5254208e+02
 6.0722667e+00   1.6325305e+02
 6.0777333e+00   1.6010350e+02
 6.0832000e+00   1.5752780e+02
 6.0886667e+00   1.3601543e+02
 6.0941333e+00   1.1743407e+02
 6.0996000e+00   8.5563616e+01
 6.1050667e+00   7.6261181e+01
 6.1105333e+00   6.0556676e+01
 6.1160000e+00   5.6418573e+01
 6.1214667e+00   4.8330415e+01
 6.1269333e+00   4.4749009e+01
 6.1324000e+00   4.1234463e+01
 6.1378667e+00   3.9890174e+01
 6.1433333e+00   3.9148079e+01
 6.1488000e+00   3.8752069e+01
 6.1542667e+00   3.8423470e+01
 6.1597333e+00   3.8208861e+01
 6.1652000e+00   3.8012846e+01
 6.1706667e+00   3.7904364e+01
 6.1761333e+00   3.7977036e+01
 6.1816000e+00   3.7584884e+01
 6.1870667e+00   3.7793445e+01
 6.1925333e+00   3.7411399e+01
 6.1980000e+00   3.7648694e+01
 6.2034667e+00   3.7270566e+01
 6.2089333e+00   3.7501245e+01
 6.2144000e+00   3.7178750e+01
 6.2198667e+00   3.7352793e+01
 6.2253333e+00   3.7138893e+01
 6.2308000e+00   3.7248344e+01
 6.2362667e+00   3.7371353e+01
 6.2417333e+00   3.7205027e+01
 6.2472000e+00   3.7150055e+01
 6.2526667e+00   3.7133414e+01
 6.2581333e+00   3.7414016e+01
 6.2636000e+00   3.7129047e+01
 6.2690667e+00   3.7971848e+01
 6.2745333e+00   3.7493648e+01
 6.2800000e+00   3.7646509e+01
 6.2854667e+00   3.7376990e+01
 6.2909333e+00   3.7114252e+01
 6.2964000e+00   3.6856612e+01
 6.3018667e+00   3.6902527e+01
 6.3073333e+00   3.6666160e+01
 6.3128000e+00   3.6881506e+01
 6.3182667e+00   3.6654856e+01
 6.3237333e+00   3.6978095e+01
 6.3292000e+00   3.6797945e+01
 6.3346667e+00   3.7002293e+01
 6.3401333e+00   3.7082286e+01
 6.3456000e+00   3.6746606e+01
 6.3510667e+00   3.6634824e+01
 6.3565333e+00   3.6849225e+01
 6.3620000e+00   3.6759269e+01
 6.3674667e+00   3.7035737e+01
 6.3729333e+00   3.7043832e+01
 6.3784000e+00   3.7416986e+01
 6.3838667e+00   3.7578008e+01
 6.3893333e+00   3.8654303e+01
 6.3948000e+00   3.9470850e+01
 6.4002667e+00   4.1234477e+01
 6.4057333e+00   4.2700713e+01
 6.4112000e+00   4.5661272e+01
 6.4166667e+00   5.0450597e+01
 6.4221333e+00   5.5786092e+01
 6.4276000e+00   6.3415544e+01
 6.4330667e+00   6.9035578e+01
 6.4385333e+00   6.9669550e+01
 6.4440000e+00   6.6308150e+01
 6.4494667e+00   6.2089624e+01
 6.4549333e+00   5.4385918e+01
 6.4604000e+00   4.9281352e+01
 6.4658667e+00   4.5596627e+01
 6.4713333e+00   4.2011979e+01
 6.4768000e+00   4.0303816e+01
 6.4822667e+00   3.8803731e+01
 6.4877333e+00   3.8299887e+01
 6.4932000e+00   3.7564918e+01
 6.4986667e+00   3.7376122e+01
 6.5041333e+00   3.6942859e+01
 6.5096000e+00   3.6824909e+01
 6.5150667e+00   3.6846971e+01
 6.5205333e+00   3.6617030e+01
 6.5260000e+00   3.6726430e+01
 6.5314667e+00   3.6419563e+01
 6.5369333e+00   3.6674913e+01
 6.5424000e+00   3.6527176e+01
 6.5478667e+00   3.6627214e+01
 6.5533333e+00   3.6424875e+01
 6.5588000e+00   3.6556710e+01
 6.5642667e+00   3.6299343e+01
 6.5697333e+00   3.6538215e+01
 6.5752000e+00   3.6366589e+01
 6.5806667e+00   3.6552458e+01
 6.5861333e+00   3.6366953e+01
 6.5916000e+00   3.6424056e+01
 6.5970667e+00   3.6378034e+01
 6.6025333e+00   3.6486772e+01
 6.6080000e+00   3.6399777e+01
 6.6134667e+00   3.6373242e+01
 6.6189333e+00   3.6517088e+01
 6.6244000e+00   3.6432761e+01
 6.6298667e+00   3.6475230e+01
 6.6353333e+00   3.6414225e+01
 6.6408000e+00   3.6414643e+01
 6.6462667e+00   3.6583473e+01
 6.6517333e+00   3.6476244e+01
 6.6572000e+00   3.6564437e+01
 6.6626667e+00   3.6442875e+01
 6.6681333e+00   3.6641211e+01
 6.6736000e+00   3.6567659e+01
 6.6790667e+00   3.6612314e+01
 6.6845333e+00   3.6722303e+01
 6.6900000e+00   3.6589703e+01
 6.6954667e+00   3.6627605e+01
 6.7009333e+00   3.6769583e+01
 6.7064000e+00   3.6674002e+01
 6.7118667e+00   3.6839831e+01
 6.7173333e+00   3.6524543e+01
 6.7228000e+00   3.6810740e+01
 6.7282667e+00   3.6669387e+01
 6.7337333e+00   3.6770451e+01
 6.7392000e+00   3.6913538e+01
 6.7446667e+00   3.6783219e+01
 6.7501333e+00   3.6986357e+01
 6.7556000e+00   3.6873017e+01
 6.7610667e+00   3.6966040e+01
 6.7665333e+00   3.6873746e+01
 6.7720000e+00   3.7144748e+01
 6.7774667e+00   3.7063412e+01
 6.7829333e+00   3.7127945e+01
 6.7884000e+00   3.7254921e+01
 6.7938667e+00   3.7117921e+01
 6.7993333e+00   3.7308987e+01
 6.8048000e+00   3.7208894e+01
 6.8102667e+00   3.7392898e+01
 6.8157333e+00   3.7358595e+01
 6.8212000e+00   3.7333305e+01
 6.8266667e+00   3.7372709e+01
 6.8321333e+00   3.7540738e+01
 6.8376000e+00   3.7489977e+01
 6.8430667e+00   3.7487315e+01
 6.8485333e+00   3.7560376e+01
 6.8540000e+00   3.7622805e+01
 6.8594667e+00   3.7681868e+01
 6.8649333e+00   3.7908405e+01
 6.8704000e+00   3.7697596e+01
 6.8758667e+00   3.7902400e+01
 6.8813333e+00   3.7931741e+01
 6.8868000e+00   3.7868119e+01
 6.8922667e+00   3.8015446e+01
 6.8977333e+00   3.7989787e+01
 6.9032000e+00   3.8007488e+01
 6.9086667e+00   3.8180991e+01
 6.9141333e+00   3.8075540e+01
 6.9196000e+00   3.8237580e+01
 6.9250667e+00   3.8198094e+01
 6.9305333e+00   3.8494234e+01
 6.9360000e+00   3.8364204e+01
 6.9414667e+00   3.8681483e+01
 6.9469333e+00   3.8483390e+01
 6.9524000e+00   3.8825555e+01
 6.9578667e+00   3.8736304e+01
 6.9633333e+00   3.8860217e+01
 6.9688000e+00   3.8863316e+01
 6.9742667e+00   3.8974856e+01
 6.9797333e+00   3.9153201e+01
 6.9852000e+00   3.9117883e+01
 6.9906667e+00   3.9437799e+01
 6.9961333e+00   3.9384346e+01
 7.0016000e+00   3.9655937e+01
 7.0070667e+00   3.9668288e+01
 7.0125333e+00   3.9836758e+01
 7.0180000e+00   3.9974531e+01
 7.0234667e+00   4.0456501e+01
 7.0289333e+00   4.0111774e+01
 7.0344000e+00   4.1939157e+01
 7.0398667e+00   4.0660197e+01
 7.0453333e+00   4.1062858e+01
 7.0508000e+00   4.0759164e+01
 7.0562667e+00   4.1082619e+01
 7.0617333e+00   4.1297912e+01
 7.0672000e+00   4.1528250e+01
 7.0726667e+00   4.2179535e+01
 7.0781333e+00   4.3295643e+01
 7.0836000e+00   4.3789864e+01
 7.0890667e+00   4.7526521e+01
 7.0945333e+00   5.1141580e+01
 7.1000000e+00   5.4293491e+01
 7.1054667e+00   6.7485641e+01
 7.1109333e+00   7.6161460e+01
 7.1164000e+00   9.3617815e+01
 7.1218667e+00   1.1126495e+02
 7.1273333e+00   1.3397699e+02
 7.1328000e+00   1.6682064e+02
 7.1382667e+00   2.0096688e+02
 7.1437333e+00   1.7985297e+02
 7.1492000e+00   2.0223286e+02
 7.1546667e+00   1.6560752e+02
 7.1601333e+00   1.2071957e+02
 7.1656000e+00   1.0184802e+02
 7.1710667e+00   8.3994527e+01
 7.1765333e+00   6.8421398e+01
 7.1820000e+00   6.0617483e+01
 7.1874667e+00   5.3395342e+01
 7.1929333e+00   4.7744165e+01
 7.1984000e+00   4.5519242e+01
 7.2038667e+00   4.3699008e+01
 7.2093333e+00   4.3161214e+01
 7.2148000e+00   4.2541250e+01
 7.2202667e+00   4.2436014e+01
 7.2257333e+00   4.1743349e+01
 7.2312000e+00   4.2077267e+01
 7.2366667e+00   4.1565700e+01
 7.2421333e+00   4.1724472e+01
 7.2476000e+00   4.1322676e+01
 7.2530667e+00   4.1577535e+01
 7.2585333e+00   4.1172152e+01
 7.2640000e+00   4.1560524e+01
 7.2694667e+00   4.1096719e+01
 7.2749333e+00   4.1326410e+01
 7.2804000e+00   4.1100536e+01
 7.2858667e+00   4.1409461e+01
 7.2913333e+00   4.1069617e+01
 7.2968000e+00   4.1243555e+01
 7.3022667e+00   4.0931099e+01
 7.3077333e+00   4.1232784e+01
 7.3132000e+00   4.0986301e+01
 7.3186667e+00   4.1151283e+01
 7.3241333e+00   4.1071865e+01
 7.3296000e+00   4.1027022e+01
 7.3350667e+00   4.1039285e+01
 7.3405333e+00   4.1034221e+01
 7.3460000e+00   4.1060598e+01
 7.3514667e+00   4.0859284e+01
 7.3569333e+00   4.0992367e+01
 7.3624000e+00   4.0910441e+01
 7.3678667e+00   4.1080752e+01
 7.3733333e+00   4.0853000e+01
 7.3788000e+00   4.0885092e+01
 7.3842667e+00   4.1025777e+01
 7.3897333e+00   4.0929678e+01
 7.3952000e+00   4.0948215e+01
 7.4006667e+00   4.0946730e+01
 7.4061333e+00   4.1115677e+01
 7.4116000e+00   4.0989087e+01
 7.4170667e+00   4.1072820e+01
 7.4225333e+00   4.1085524e+01
 7.4280000e+00   4.1079696e+01
 7.4334667e+00   4.1072776e+01
 7.4389333e+00   4.1153547e+01
 7.4444000e+00   4.1090916e+01
 7.4498667e+00   4.1421905e+01
 7.4553333e+00   4.1111158e+01
 7.4608000e+00   4.1369612e+01
 7.4662667e+00   4.1179037e+01
 7.4717333e+00   4.1253018e+01
 7.4772000e+00   4.1316238e+01
 7.4826667e+00   4.1420678e+01
 7.4881333e+00   4.1351570e+01
 7.4936000e+00   4.1499318e+01
 7.4990667e+00   4.1517873e+01
 7.5045333e+00   4.1535080e+01
 7.5100000e+00   4.1553340e+01
 7.5154667e+00   4.1556690e+01
 7.5209333e+00   4.1699294e+01
 7.5264000e+00   4.1566487e+01
 7.5318667e+00   4.1682697e+01
 7.5373333e+00   4.1651142e+01
 7.5428000e+00   4.1679268e+01
 7.5482667e+00   4.1727203e+01
 7.5537333e+00   4.1886619e+01
 7.5592000e+00   4.1748829e+01
 7.5646667e+00   4.1840798e+01
 7.5701333e+00   4.1852426e+01
 7.5756000e+00   4.2023341e+01
 7.5810667e+00   4.2047609e+01
 7.5865333e+00   4.2045130e+01
 7.5920000e+00   4.2208676e+01
 7.5974667e+00   4.2134414e+01
 7.6029333e+00   4.2156317e+01
 7.6084000e+00   4.2195430e+01
 7.6138667e+00   4.2350225e+01
 7.6193333e+00   4.2313769e+01
 7.6248000e+00   4.2443141e+01
 7.6302667e+00   4.2340347e+01
 7.6357333e+00   4.2485411e+01
 7.6412000e+00   4.2619832e+01
 7.6466667e+00   4.2806471e+01
 7.6521333e+00   4.2603274e+01
 7.6576000e+00   4.2816875e+01
 7.6630667e+00   4.2792085e+01
 7.6685333e+00   4.3072513e+01
 7.6740000e+00   4.2956281e+01
 7.6794667e+00   4.3226180e+01
 7.6849333e+00   4.3167704e+01
 7.6904000e+00   4.3272293e+01
 7.6958667e+00   4.3412583e+01
 7.7013333e+00   4.3382417e+01
 7.7068000e+00   4.3688802e+01
 7.7122667e+00   4.3631280e+01
 7.7177333e+00   4.3920617e+01
 7.7232000e+00   4.3619467e+01
 7.7286667e+00   4.4104311e+01
 7.7341333e+00   4.3913903e+01
 7.7396000e+00   4.4244194e+01
 7.7450667e+00   4.4384695e+01
 7.7505333e+00   4.4573833e+01
 7.7560000e+00   4.4602409e+01
 7.7614667e+00   4.4957153e+01
 7.7669333e+00   4.5109166e+01
 7.7724000e+00   4.5304515e+01
 7.7778667e+00   4.5384751e+01
 7.7833333e+00   4.5842908e+01
 7.7888000e+00   4.6266987e+01
 7.7942667e+00   4.6440576e+01
 7.7997333e+00   4.7635038e+01
 7.8052000e+00   5.0908499e+01
 7.8106667e+00   4.8664988e+01
 7.8161333e+00   5.3557369e+01
 7.8216000e+00   5.4778739e+01
 7.8270667e+00   5.9825688e+01
 7.8325333e+00   7.0498802e+01
 7.8380000e+00   8.5852431e+01
 7.8434667e+00   1.0407720e+02
 7.8489333e+00   1.2512128e+02
 7.8544000e+00   1.4210846e+02
 7.8598667e+00   1.6151575e+02
 7.8653333e+00   1.7698442e+02
 7.8708000e+00   1.8854811e+02
 7.8762667e+00   1.8608154e+02
 7.8817333e+00   1.8064981e+02
 7.8872000e+00   1.5612839e+02
 7.8926667e+00   1.2762983e+02
 7.8981333e+00   1.1316085e+02
 7.9036000e+00   9.7530919e+01
 7.9090667e+00   8.5094289e+01
 7.9145333e+00   7.5618094e+01
 7.9200000e+00   6.4657105e+01
 7.9254667e+00   5.8739249e+01
 7.9309333e+00   5.5331632e+01
 7.9364000e+00   5.3359204e+01
 7.9418667e+00   5.0846076e+01
 7.9473333e+00   5.0050846e+01
 7.9528000e+00   4.8797199e+01
 7.9582667e+00   4.8597451e+01
 7.9637333e+00   4.8176860e+01
 7.9692000e+00   4.8022426e+01
 7.9746667e+00   4.7652633e+01
 7.9801333e+00   4.7892131e+01
 7.9856000e+00   4.7569142e+01
 7.9910667e+00   4.7796473e+01
 7.9965333e+00   4.7716401e+01
 8.0020000e+00   4.7707583e+01
 8.0074667e+00   4.7634385e+01
 8.0129333e+00   4.7862894e+01
 8.0184000e+00   4.7826593e+01
 8.0238667e+00   4.7851613e+01
 8.0293333e+00   4.8098961e+01
 8.0348000e+00   4.7965191e+01
 8.0402667e+00   4.8280475e+01
 8.0457333e+00   4.8138048e+01
 8.0512000e+00   4.8680336e+01
 8.0566667e+00   4.8424099e+01
 8.0621333e+00   4.8962476e+01
 8.0676000e+00   4.8953047e+01
 8.0730667e+00   4.9450758e+01
 8.0785333e+00   4.9599289e+01
 8.0840000e+00   5.0214322e+01
 8.0894667e+00   5.1311295e+01
 8.0949333e+00   5.1755181e+01
 8.1004000e+00   5.6057396e+01
 8.1058667e+00   5.8145356e+01
 8.1113333e+00   7.1061333e+01
 8.1168000e+00   7.2856273e+01
 8.1222667e+00   8.9179209e+01
 8.1277333e+00   9.1353432e+01
 8.1332000e+00   1.2188095e+02
 8.1386667e+00   1.2971637e+02
 8.1441333e+00   1.6507621e+02
 8.1496000e+00   1.4137101e+02
 8.1550667e+00   1.5667800e+02
 8.1605333e+00   1.2664740e+02
 8.1660000e+00   1.4714703e+02
 8.1714667e+00   1.2274420e+02
 8.1769333e+00   1.5851471e+02
 8.1824000e+00   1.2533703e+02
 8.1878667e+00   1.8689891e+02
 8.1933333e+00   1.4597330e+02
 8.1988000e+00   1.3763019e+02
 8.2042667e+00   1.4052370e+02
 8.2097333e+00   1.0257434e+02
 8.2152000e+00   1.2667975e+02
 8.2206667e+00   7.4669372e+01
 8.2261333e+00   8.9481907e+01
 8.2316000e+00   6.4481269e+01
 8.2370667e+00   6.7154511e+01
 8.2425333e+00   6.3698545e+01
 8.2480000e+00   6.4011281e+01
 8.2534667e+00   6.2561082e+01
 8.2589333e+00   6.2126300e+01
 8.2644000e+00   5.9656946e+01
 8.2698667e+00   5.7711127e+01
 8.2753333e+00   5.4628915e+01
 8.2808000e+00   5.3540573e+01
 8.2862667e+00   5.1815879e+01
 8.2917333e+00   5.1480328e+01
 8.2972000e+00   5.0748208e+01
 8.3026667e+00   5.0686006e+01
 8.3081333e+00   5.0168750e+01
 8.3136000e+00   5.0303150e+01
 8.3190667e+00   5.0082585e+01
 8.3245333e+00   5.0188608e+01
 8.3300000e+00   5.0157686e+01
 8.3354667e+00   5.0122837e+01
 8.3409333e+00   5.0304860e+01
 8.3464000e+00   5.0334796e+01
 8.3518667e+00   5.0752709e+01
 8.3573333e+00   5.0947270e+01
 8.3628000e+00   5.2220579e+01
 8.3682667e+00   5.3063774e+01
 8.3737333e+00   5.6480903e+01
 8.3792000e+00   6.0607813e+01
 8.3846667e+00   6.9088010e+01
 8.3901333e+00   8.0855018e+01
 8.3956000e+00   1.0505402e+02
 8.4010667e+00   1.1559941e+02
 8.4065333e+00   1.3752191e+02
 8.4120000e+00   1.4149347e+02
 8.4174667e+00   1.4944136e+02
 8.4229333e+00   1.5243129e+02
 8.4284000e+00   1.5061969e+02
 8.4338667e+00   1.4513455e+02
 8.4393333e+00   1.3493859e+02
 8.4448000e+00   1.2006203e+02
 8.4502667e+00   1.0265083e+02
 8.4557333e+00   8.7312345e+01
 8.4612000e+00   7.2955751e+01
 8.4666667e+00   6.6458453e+01
 8.4721333e+00   5.8179926e+01
 8.4776000e+00   5.5960937e+01
 8.4830667e+00   5.3194843e+01
 8.4885333e+00   5.3488484e+01
 8.4940000e+00   5.3187312e+01
 8.4994667e+00   5.6132108e+01
 8.5049333e+00   5.9008279e+01
 8.5104000e+00   6.5864615e+01
 8.5158667e+00   7.2984882e+01
 8.5213333e+00   8.8327532e+01
 8.5268000e+00   9.2116084e+01
 8.5322667e+00   1.0459132e+02
 8.5377333e+00   1.0843905e+02
 8.5432000e+00   1.1507371e+02
 8.5486667e+00   1.1458036e+02
 8.5541333e+00   1.1114584e+02
 8.5596000e+00   1.0085933e+02
 8.5650667e+00   8.9595208e+01
 8.5705333e+00   7.8154619e+01
 8.5760000e+00   6.7998190e+01
 8.5814667e+00   6.1379508e+01
 8.5869333e+00   5.6423006e+01
 8.5924000e+00   5.3640126e+01
 8.5978667e+00   5.1103890e+01
 8.6033333e+00   4.9902957e+01
 8.6088000e+00   4.8664923e+01
 8.6142667e+00   4.8439695e+01
 8.6197333e+00   4.7784881e+01
 8.6252000e+00   4.7814590e+01
 8.6306667e+00   4.7372769e+01
 8.6361333e+00   4.7376735e+01
 8.6416000e+00   4.7007011e+01
 8.6470667e+00   4.6998634e+01
 8.6525333e+00   4.6641521e+01
 8.6580000e+00   4.6746797e+01
 8.6634667e+00   4.6367319e+01
 8.6689333e+00   4.6481295e+01
 8.6744000e+00   4.6031299e+01
 8.6798667e+00   4.6092052e+01
 8.6853333e+00   4.6063079e+01
 8.6908000e+00   4.5873623e+01
 8.6962667e+00   4.5824043e+01
 8.7017333e+00   4.5566786e+01
 8.7072000e+00   4.5673221e+01
 8.7126667e+00   4.5332562e+01
 8.7181333e+00   4.5588787e+01
 8.7236000e+00   4.5033617e+01
 8.7290667e+00   4.5405679e+01
 8.7345333e+00   4.5066101e+01
 8.7400000e+00   4.5150354e+01
 8.7454667e+00   4.4899089e+01
 8.7509333e+00   4.5051821e+01
 8.7564000e+00   4.4729129e+01
 8.7618667e+00   4.4864606e+01
 8.7673333e+00   4.4558307e+01
 8.7728000e+00   4.4765780e+01
 8.7782667e+00   4.4378156e+01
 8.7837333e+00   4.4596833e+01
 8.7892000e+00   4.4309913e+01
 8.7946667e+00   4.4257868e+01
 8.8001333e+00   4.4261476e+01
 8.8056000e+00   4.4170305e+01
 8.8110667e+00   4.4327041e+01
 8.8165333e+00   4.4062611e+01
 8.8220000e+00   4.4279178e+01
 8.8274667e+00   4.3745180e+01
 8.8329333e+00   4.4109254e+01
 8.8384000e+00   4.3795732e+01
 8.8438667e+00   4.4010427e+01
 8.8493333e+00   4.3510728e+01
 8.8548000e+00   4.3794228e+01
 8.8602667e+00   4.3483204e+01
 8.8657333e+00   4.3680293e+01
 8.8712000e+00   4.3554978e+01
 8.8766667e+00   4.3755947e+01
 8.8821333e+00   4.3804836e+01
 8.8876000e+00   4.4292399e+01
 8.8930667e+00   4.4776222e+01
 8.8985333e+00   4.5961116e+01
 8.9040000e+00   4.7299873e+01
 8.9094667e+00   4.9757856e+01
 8.9149333e+00   5.2376776e+01
 8.9204000e+00   5.4524455e+01
 8.9258667e+00   5.5287819e+01
 8.9313333e+00   5.3260242e+01
 8.9368000e+00   5.3671926e+01
 8.9422667e+00   5.2278984e+01
 8.9477333e+00   5.3198368e+01
 8.9532000e+00   5.4193816e+01
 8.9586667e+00   5.2064571e+01
 8.9641333e+00   4.8666528e+01
 8.9696000e+00   4.5813995e+01
 8.9750667e+00   4.4355597e+01
 8.9805333e+00   4.3502212e+01
 8.9860000e+00   4.2985097e+01
 8.9914667e+00   4.2713924e+01
 8.9969333e+00   4.2349873e+01
 9.0024000e+00   4.2281347e+01
 9.0078667e+00   4.1954603e+01
 9.0133333e+00   4.2023792e+01
 9.0188000e+00   4.1828671e+01
 9.0242667e+00   4.1825658e+01
 9.0297333e+00   4.1768526e+01
 9.0352000e+00   4.1630368e+01
 9.0406667e+00   4.1791455e+01
 9.0461333e+00   4.1469253e+01
 9.0516000e+00   4.1652229e+01
 9.0570667e+00   4.1395078e+01
 9.0625333e+00   4.1681403e+01
 9.0680000e+00   4.1466690e+01
 9.0734667e+00   4.2107261e+01
 9.0789333e+00   4.2279903e+01
 9.0844000e+00   4.2938946e+01
 9.0898667e+00   4.3729055e+01
 9.0953333e+00   4.4795513e+01
 9.1008000e+00   4.5536731e+01
 9.1062667e+00   4.6329032e+01
 9.1117333e+00   4.5740625e+01
 9.1172000e+00   4.5817877e+01
 9.1226667e+00   4.5548120e+01
 9.1281333e+00   4.5466908e+01
 9.1336000e+00   4.5161079e+01
 9.1390667e+00   4.4539158e+01
 9.1445333e+00   4.3543397e+01
 9.1500000e+00   4.2160390e+01
 9.1554667e+00   4.1694933e+01
 9.1609333e+00   4.0972857e+01
 9.1664000e+00   4.0839055e+01
 9.1718667e+00   4.0728155e+01
 9.1773333e+00   4.0354399e+01
 9.1828000e+00   4.0273863e+01
 9.1882667e+00   4.0154046e+01
 9.1937333e+00   3.9910422e+01
 9.1992000e+00   4.0086420e+01
 9.2046667e+00   3.9689350e+01
 9.2101333e+00   3.9992841e+01
 9.2156000e+00   3.9735372e+01
 9.2210667e+00   3.9939353e+01
 9.2265333e+00   3.9541238e+01
 9.2320000e+00   3.9847272e+01
 9.2374667e+00   3.9546817e+01
 9.2429333e+00   3.9637702e+01
 9.2484000e+00   3.9806430e+01
 9.2538667e+00   3.9501968e+01
 9.2593333e+00   3.9574277e+01
 9.2648000e+00   3.9500832e+01
 9.2702667e+00   3.9491041e+01
 9.2757333e+00   3.9649720e+01
 9.2812000e+00   3.9454061e+01
 9.2866667e+00   3.9727154e+01
 9.2921333e+00   3.9762696e+01
 9.2976000e+00   3.9589766e+01
 9.3030667e+00   4.0469651e+01
 9.3085333e+00   3.9574337e+01
 9.3140000e+00   3.9742632e+01
 9.3194667e+00   3.9620039e+01
 9.3249333e+00   4.0072485e+01
 9.3304000e+00   3.9982807e+01
 9.3358667e+00   4.0929222e+01
 9.3413333e+00   4.1824248e+01
 9.3468000e+00   4.3422231e+01
 9.3522667e+00   4.5696111e+01
 9.3577333e+00   4.7431156e+01
 9.3632000e+00   5.0048940e+01
 9.3686667e+00   5.1440469e+01
 9.3741333e+00   5.1405529e+01
 9.3796000e+00   5.1315001e+01
 9.3850667e+00   5.0551363e+01
 9.3905333e+00   4.9907267e+01
 9.3960000e+00   5.0015609e+01
 9.4014667e+00   4.8585337e+01
 9.4069333e+00   4.7370435e+01
 9.4124000e+00   4.4450997e+01
 9.4178667e+00   4.3373536e+01
 9.4233333e+00   4.1593345e+01
 9.4288000e+00   4.1037860e+01
 9.4342667e+00   4.0006648e+01
 9.4397333e+00   3.9850341e+01
 9.4452000e+00   3.9578798e+01
 9.4506667e+00   3.9516485e+01
 9.4561333e+00   3.9358495e+01
 9.4616000e+00   3.9442444e+01
 9.4670667e+00   3.9321971e+01
 9.4725333e+00   3.9641457e+01
 9.4780000e+00   3.9443974e+01
 9.4834667e+00   3.9724091e+01
 9.4889333e+00   3.9508449e+01
 9.4944000e+00   3.9957777e+01
 9.4998667e+00   3.9840353e+01
 9.5053333e+00   4.0396876e+01
 9.5108000e+00   4.0626290e+01
 9.5162667e+00   4.1289450e+01
 9.5217333e+00   4.3182944e+01
 9.5272000e+00   4.7047222e+01
 9.5326667e+00   4.6708014e+01
 9.5381333e+00   5.2166137e+01
 9.5436000e+00   6.2440059e+01
 9.5490667e+00   7.5715630e+01
 9.5545333e+00   8.5476614e+01
 9.5600000e+00   8.4473877e+01
 9.5654667e+00   1.0226781e+02
 9.5709333e+00   9.8975991e+01
 9.5764000e+00   9.7864651e+01
 9.5818667e+00   1.0480490e+02
 9.5873333e+00   9.0837406e+01
 9.5928000e+00   9.6727156e+01
 9.5982667e+00   8.8407835e+01
 9.6037333e+00   8.3204474e+01
 9.6092000e+00   7.5831967e+01
 9.6146667e+00   8.7051557e+01
 9.6201333e+00   8.1204740e+01
 9.6256000e+00   7.9162409e+01
 9.6310667e+00   6.9978628e+01
 9.6365333e+00   6.0191428e+01
 9.6420000e+00   4.9162740e+01
 9.6474667e+00   4.4202968e+01
 9.6529333e+00   4.1098551e+01
 9.6584000e+00   4.0196370e+01
 9.6638667e+00   3.9578979e+01
 9.6693333e+00   3.9190904e+01
 9.6748000e+00   3.8841822e+01
 9.6802667e+00   3.8764435e+01
 9.6857333e+00   3.8568583e+01
 9.6912000e+00   3.8471978e+01
 9.6966667e+00   3.8343606e+01
 9.7021333e+00   3.8229272e+01
 9.7076000e+00   3.8032512e+01
 9.7130667e+00   3.8081117e+01
 9.7185333e+00   3.7900124e+01
 9.7240000e+00   3.7914430e+01
 9.7294667e+00   3.7627640e+01
 9.7349333e+00   3.7671594e+01
 9.7404000e+00   3.7518584e+01
 9.7458667e+00   3.7437062e+01
 9.7513333e+00   3.7414440e+01
 9.7568000e+00   3.7312043e+01
 9.7622667e+00   3.7357749e+01
 9.7677333e+00   3.7159853e+01
 9.7732000e+00   3.7315062e+01
 9.7786667e+00   3.7141664e+01
 9.7841333e+00   3.7367273e+01
 9.7896000e+00   3.7295298e+01
 9.7950667e+00   3.7603884e+01
 9.8005333e+00   3.7837544e+01
 9.8060000e+00   3.8561981e+01
 9.8114667e+00   3.9574635e+01
 9.8169333e+00   4.1180936e+01
 9.8224000e+00   4.2919972e+01
 9.8278667e+00   4.4773895e+01
 9.8333333e+00   4.6842527e+01
 9.8388000e+00   4.8923761e+01
 9.8442667e+00   4.9599540e+01
 9.8497333e+00   4.9720163e+01
 9.8552000e+00   4.8359514e+01
 9.8606667e+00   4.6991983e+01
 9.8661333e+00   4.5055642e+01
 9.8716000e+00   4.3083508e+01
 9.8770667e+00   4.1581305e+01
 9.8825333e+00   4.0081849e+01
 9.8880000e+00   3.9177806e+01
 9.8934667e+00   3.8716682e+01
 9.8989333e+00   3.8063335e+01
 9.9044000e+00   3.8129091e+01
 9.9098667e+00   3.7949210e+01
 9.9153333e+00   3.8290240e+01
 9.9208000e+00   3.8160315e+01
 9.9262667e+00   3.8514068e+01
 9.9317333e+00   3.8488915e+01
 9.9372000e+00   3.9144522e+01
 9.9426667e+00   3.9480721e+01
 9.9481333e+00   4.0496766e+01
 9.9536000e+00   4.7115439e+01
 9.9590667e+00   4.7363556e+01
 9.9645333e+00   4.9558701e+01
 9.9700000e+00   5.8589619e+01
 9.9754667e+00   5.6996399e+01
 9.9809333e+00   7.6661290e+01
 9.9864000e+00   8.1643879e+01
 9.9918667e+00   8.8693371e+01
 9.9973333e+00   1.0108951e+02
 1.0002800e+01   1.0097534e+02
 1.0008267e+01   1.1949773e+02
 1.0013733e+01   9.1087322e+01
 1.0019200e+01   1.2009650e+02
 1.0024667e+01   1.0043563e+02
 1.0030133e+01   9.3360121e+01
 1.0035600e+01   8.1168595e+01
 1.0041067e+01   8.4056355e+01
 1.0046533e+01   6.8842119e+01
 1.0052000e+01   6.8871290e+01
 1.0057467e+01   6.1921982e+01
 1.0062933e+01   5.2808875e+01
 1.0068400e+01   6.2589643e+01
 1.0073867e+01   4.5492612e+01
 1.0079333e+01   5.5749113e+01
 1.0084800e+01   4.1455552e+01
 1.0090267e+01   4.3248508e+01
 1.0095733e+01   3.9081838e+01
 1.0101200e+01   3.9922661e+01
 1.0106667e+01   3.8183155e+01
 1.0112133e+01   3.8485341e+01
 1.0117600e+01   3.7320782e+01
 1.0123067e+01   3.7954464e+01
 1.0128533e+01   3.7441811e+01
 1.0134000e+01   3.8027169e+01
 1.0139467e+01   3.8110540e+01
 1.0144933e+01   3.7697000e+01
 1.0150400e+01   3.7686791e+01
 1.0155867e+01   3.7650155e+01
 1.0161333e+01   3.7975123e+01
 1.0166800e+01   3.8678826e+01
 1.0172267e+01   3.9380154e+01
 1.0177733e+01   4.0537346e+01
 1.0183200e+01   4.1020362e+01
 1.0188667e+01   4.1949804e+01
 1.0194133e+01   4.2422812e+01
 1.0199600e+01   4.2270617e+01
 1.0205067e+01   4.2106420e+01
 1.0210533e+01   4.2035666e+01
 1.0216000e+01   4.0665594e+01
 1.0221467e+01   4.0510382e+01
 1.0226933e+01   3.8602407e+01
 1.0232400e+01   3.8162947e+01
 1.0237867e+01   3.6999141e+01
 1.0243333e+01   3.6496377e+01
 1.0248800e+01   3.5724266e+01
 1.0254267e+01   3.5312894e+01
 1.0259733e+01   3.5103264e+01
 1.0265200e+01   3.4644291e+01
 1.0270667e+01   3.4681782e+01
 1.0276133e+01   3.4497067e+01
 1.0281600e+01   3.4498852e+01
 1.0287067e+01   3.4443109e+01
 1.0292533e+01   3.4377641e+01
 1.0298000e+01   3.4154914e+01
 1.0303467e+01   3.4089310e+01
 1.0308933e+01   3.4211818e+01
 1.0314400e+01   3.4000559e+01
 1.0319867e+01   3.4127365e+01
 1.0325333e+01   3.3982923e+01
 1.0330800e+01   3.3961505e+01
 1.0336267e+01   3.3882006e+01
 1.0341733e+01   3.3949778e+01
 1.0347200e+01   3.3864519e+01
 1.0352667e+01   3.3732767e+01
 1.0358133e+01   3.3824900e+01
 1.0363600e+01   3.3730194e+01
 1.0369067e+01   3.3707774e+01
 1.0374533e+01   3.3679012e+01
 1.0380000e+01   3.3675190e+01
 1.0385467e+01   3.3725919e+01
 1.0390933e+01   3.3663025e+01
 1.0396400e+01   3.3653529e+01
 1.0401867e+01   3.3694878e+01
 1.0407333e+01   3.3623333e+01
 1.0412800e+01   3.3739683e+01
 1.0418267e+01   3.3698200e+01
 1.0423733e+01   3.4149377e+01
 1.0429200e+01   3.3584321e+01
 1.0434667e+01   3.4004714e+01
 1.0440133e+01   3.3640564e+01
 1.0445600e+01   3.3583704e+01
 1.0451067e+01   3.3522066e+01
 1.0456533e+01   3.3525127e+01
 1.0462000e+01   3.3482337e+01
 1.0467467e+01   3.3614929e+01
 1.0472933e+01   3.3431896e+01
 1.0478400e+01   3.3481654e+01
 1.0483867e+01   3.3376053e+01
 1.0489333e+01   3.3472807e+01
 1.0494800e+01   3.3508196e+01
 1.0500267e+01   3.3394166e+01
 1.0505733e+01   3.3664486e+01
 1.0511200e+01   3.3474652e+01
 1.0516667e+01   3.3712978e+01
 1.0522133e+01   3.3575623e+01
 1.0527600e+01   3.3617127e+01
 1.0533067e+01   3.3654790e+01
 1.0538533e+01   3.3734681e+01
 1.0544000e+01   3.3675667e+01
 1.0549467e+01   3.3808567e+01
 1.0554933e+01   3.3767001e+01
 1.0560400e+01   3.3740769e+01
 1.0565867e+01   3.3897805e+01
 1.0571333e+01   3.4072743e+01
 1.0576800e+01   3.4287384e+01
 1.0582267e+01   3.4801434e+01
 1.0587733e+01   3.5409853e+01
 1.0593200e+01   3.6856897e+01
 1.0598667e+01   3.8186928e+01
 1.0604133e+01   4.1168046e+01
 1.0609600e+01   4.3181111e+01
 1.0615067e+01   4.7362520e+01
 1.0620533e+01   5.0632933e+01
 1.0626000e+01   5.4010685e+01
 1.0631467e+01   5.5425800e+01
 1.0636933e+01   5.6884951e+01
 1.0642400e+01   5.3239232e+01
 1.0647867e+01   5.1473071e+01
 1.0653333e+01   4.6942181e+01
 1.0658800e+01   4.3419158e+01
 1.0664267e+01   4.0150908e+01
 1.0669733e+01   3.7880337e+01
 1.0675200e+01   3.6405956e+01
 1.0680667e+01   3.5395137e+01
 1.0686133e+01   3.4958609e+01
 1.0691600e+01   3.4396418e+01
 1.0697067e+01   3.4209146e+01
 1.0702533e+01   3.4030994e+01
 1.0708000e+01   3.3967308e+01
 1.0713467e+01   3.3855180e+01
 1.0718933e+01   3.3893327e+01
 1.0724400e+01   3.3836100e+01
 1.0729867e+01   3.3769268e+01
 1.0735333e+01   3.3667987e+01
 1.0740800e+01   3.3822021e+01
 1.0746267e+01   3.3693671e+01
 1.0751733e+01   3.3653541e+01
 1.0757200e+01   3.3614831e+01
 1.0762667e+01   3.3734533e+01
 1.0768133e+01   3.3657101e+01
 1.0773600e+01   3.3621263e+01
 1.0779067e+01   3.3603088e+01
 1.0784533e+01   3.3664835e+01
 1.0790000e+01   3.3520644e+01
 1.0795467e+01   3.3638314e+01
 1.0800933e+01   3.3601412e+01
 1.0806400e+01   3.3655379e+01
 1.0811867e+01   3.3505098e+01
 1.0817333e+01   3.3763690e+01
 1.0822800e+01   3.3571810e+01
 1.0828267e+01   3.3752306e+01
 1.0833733e+01   3.3646237e+01
 1.0839200e+01   3.3746087e+01
 1.0844667e+01   3.3705559e+01
 1.0850133e+01   3.3776585e+01
 1.0855600e+01   3.3723497e+01
 1.0861067e+01   3.3807412e+01
 1.0866533e+01   3.3913905e+01
 1.0872000e+01   3.4013643e+01
 1.0877467e+01   3.4395843e+01
 1.0882933e+01   3.4949332e+01
 1.0888400e+01   3.5380191e+01
 1.0893867e+01   3.6456783e+01
 1.0899333e+01   3.7091717e+01
 1.0904800e+01   3.8185111e+01
 1.0910267e+01   3.8909025e+01
 1.0915733e+01   3.9063592e+01
 1.0921200e+01   3.9065833e+01
 1.0926667e+01   3.8573512e+01
 1.0932133e+01   3.8208325e+01
 1.0937600e+01   3.7572445e+01
 1.0943067e+01   3.6787286e+01
 1.0948533e+01   3.6274436e+01
 1.0954000e+01   3.5375597e+01
 1.0959467e+01   3.5111821e+01
 1.0964933e+01   3.4559623e+01
 1.0970400e+01   3.4349970e+01
 1.0975867e+01   3.4299580e+01
 1.0981333e+01   3.4142596e+01
 1.0986800e+01   3.4215146e+01
 1.0992267e+01   3.4195341e+01
 1.0997733e+01   3.4213525e+01
 1.1003200e+01   3.4133227e+01
 1.1008667e+01   3.4248500e+01
 1.1014133e+01   3.4269404e+01
 1.1019600e+01   3.4373654e+01
 1.1025067e+01   3.4153222e+01
 1.1030533e+01   3.4579554e+01
 1.1036000e+01   3.4227157e+01
 1.1041467e+01   3.4458108e+01
 1.1046933e+01   3.4429252e+01
 1.1052400e+01   3.4582176e+01
 1.1057867e+01   3.4559379e+01
 1.1063333e+01   3.4769818e+01
 1.1068800e+01   3.4698805e+01
 1.1074267e+01   3.4879253e+01
 1.1079733e+01   3.4910139e+01
 1.1085200e+01   3.5458930e+01
 1.1090667e+01   3.5400961e+01
 1.1096133e+01   3.6402127e+01
 1.1101600e+01   3.6804737e+01
 1.1107067e+01   3.9109384e+01
 1.1112533e+01   4.1066464e+01
 1.1118000e+01   4.6102684e+01
 1.1123467e+01   4.9216075e+01
 1.1128933e+01   5.5598206e+01
 1.1134400e+01   6.0247540e+01
 1.1139867e+01   6.2868090e+01
 1.1145333e+01   6.5366589e+01
 1.1150800e+01   6.5453988e+01
 1.1156267e+01   6.3559911e+01
 1.1161733e+01   6.0393159e+01
 1.1167200e+01   5.5526747e+01
 1.1172667e+01   5.0462649e+01
 1.1178133e+01   4.5583664e+01
 1.1183600e+01   4.2395286e+01
 1.1189067e+01   3.9797427e+01
 1.1194533e+01   3.8195166e+01
