PWDR ff_004768_sum_norm_dc_0.tif Azm= 352.fxye Bank 1
2-Theta Angle (Degrees)
Intensity
       1500
 3.0000000e+00   4.4947503e+01
 3.0054667e+00   4.4635816e+01
 3.0109333e+00   4.4584435e+01
 3.0164000e+00   4.4829635e+01
 3.0218667e+00   4.4279647e+01
 3.0273333e+00   4.4039975e+01
 3.0328000e+00   4.4401519e+01
 3.0382667e+00   4.3857840e+01
 3.0437333e+00   4.3527475e+01
 3.0492000e+00   4.3652414e+01
 3.0546667e+00   4.3463310e+01
 3.0601333e+00   4.3249600e+01
 3.0656000e+00   4.3052366e+01
 3.0710667e+00   4.2658592e+01
 3.0765333e+00   4.2363456e+01
 3.0820000e+00   4.2136683e+01
 3.0874667e+00   4.1649042e+01
 3.0929333e+00   4.1547929e+01
 3.0984000e+00   4.1184914e+01
 3.1038667e+00   4.1074484e+01
 3.1093333e+00   4.0772834e+01
 3.1148000e+00   4.0450237e+01
 3.1202667e+00   4.0471736e+01
 3.1257333e+00   4.0303949e+01
 3.1312000e+00   4.0128997e+01
 3.1366667e+00   4.0049664e+01
 3.1421333e+00   3.9811743e+01
 3.1476000e+00   3.9710568e+01
 3.1530667e+00   3.9700588e+01
 3.1585333e+00   3.9362146e+01
 3.1640000e+00   3.9268110e+01
 3.1694667e+00   3.9079383e+01
 3.1749333e+00   3.8881823e+01
 3.1804000e+00   3.8707460e+01
 3.1858667e+00   3.8475323e+01
 3.1913333e+00   3.8611040e+01
 3.1968000e+00   3.8214959e+01
 3.2022667e+00   3.8361936e+01
 3.2077333e+00   3.8122343e+01
 3.2132000e+00   3.8105427e+01
 3.2186667e+00   3.8030974e+01
 3.2241333e+00   3.7974537e+01
 3.2296000e+00   3.7900976e+01
 3.2350667e+00   3.7804968e+01
 3.2405333e+00   3.7706204e+01
 3.2460000e+00   3.7603225e+01
 3.2514667e+00   3.7354301e+01
 3.2569333e+00   3.7183184e+01
 3.2624000e+00   3.7088253e+01
 3.2678667e+00   3.6875603e+01
 3.2733333e+00   3.6743080e+01
 3.2788000e+00   3.6509309e+01
 3.2842667e+00   3.6396460e+01
 3.2897333e+00   3.6183490e+01
 3.2952000e+00   3.6174384e+01
 3.3006667e+00   3.5870509e+01
 3.3061333e+00   3.5912379e+01
 3.3116000e+00   3.5752442e+01
 3.3170667e+00   3.5811299e+01
 3.3225333e+00   3.5531882e+01
 3.3280000e+00   3.5570137e+01
 3.3334667e+00   3.5300862e+01
 3.3389333e+00   3.5346434e+01
 3.3444000e+00   3.5182880e+01
 3.3498667e+00   3.5130785e+01
 3.3553333e+00   3.5161206e+01
 3.3608000e+00   3.4989858e+01
 3.3662667e+00   3.5135834e+01
 3.3717333e+00   3.4754954e+01
 3.3772000e+00   3.4755175e+01
 3.3826667e+00   3.4649053e+01
 3.3881333e+00   3.4445685e+01
 3.3936000e+00   3.4441376e+01
 3.3990667e+00   3.4397080e+01
 3.4045333e+00   3.4269929e+01
 3.4100000e+00   3.4433372e+01
 3.4154667e+00   3.4154432e+01
 3.4209333e+00   3.4180663e+01
 3.4264000e+00   3.4047429e+01
 3.4318667e+00   3.4061717e+01
 3.4373333e+00   3.3995727e+01
 3.4428000e+00   3.3854156e+01
 3.4482667e+00   3.3982867e+01
 3.4537333e+00   3.3938048e+01
 3.4592000e+00   3.3698463e+01
 3.4646667e+00   3.3729879e+01
 3.4701333e+00   3.3555407e+01
 3.4756000e+00   3.3512123e+01
 3.4810667e+00   3.3401179e+01
 3.4865333e+00   3.3358003e+01
 3.4920000e+00   3.3326217e+01
 3.4974667e+00   3.3314329e+01
 3.5029333e+00   3.3224265e+01
 3.5084000e+00   3.3254663e+01
 3.5138667e+00   3.3198404e+01
 3.5193333e+00   3.3194924e+01
 3.5248000e+00   3.3048080e+01
 3.5302667e+00   3.3153380e+01
 3.5357333e+00   3.3028721e+01
 3.5412000e+00   3.3197256e+01
 3.5466667e+00   3.3004462e+01
 3.5521333e+00   3.3087670e+01
 3.5576000e+00   3.3083001e+01
 3.5630667e+00   3.3091937e+01
 3.5685333e+00   3.3178039e+01
 3.5740000e+00   3.3395986e+01
 3.5794667e+00   3.3383629e+01
 3.5849333e+00   3.3323845e+01
 3.5904000e+00   3.3337263e+01
 3.5958667e+00   3.3135843e+01
 3.6013333e+00   3.3160127e+01
 3.6068000e+00   3.2886619e+01
 3.6122667e+00   3.2896820e+01
 3.6177333e+00   3.2539229e+01
 3.6232000e+00   3.2754758e+01
 3.6286667e+00   3.2429289e+01
 3.6341333e+00   3.2453306e+01
 3.6396000e+00   3.2437366e+01
 3.6450667e+00   3.2287755e+01
 3.6505333e+00   3.2228022e+01
 3.6560000e+00   3.2226273e+01
 3.6614667e+00   3.2045405e+01
 3.6669333e+00   3.2183008e+01
 3.6724000e+00   3.2078985e+01
 3.6778667e+00   3.2072965e+01
 3.6833333e+00   3.2158429e+01
 3.6888000e+00   3.2090734e+01
 3.6942667e+00   3.2078326e+01
 3.6997333e+00   3.2025711e+01
 3.7052000e+00   3.1995811e+01
 3.7106667e+00   3.1923514e+01
 3.7161333e+00   3.2056140e+01
 3.7216000e+00   3.2024642e+01
 3.7270667e+00   3.1843654e+01
 3.7325333e+00   3.1835234e+01
 3.7380000e+00   3.1867647e+01
 3.7434667e+00   3.1891730e+01
 3.7489333e+00   3.1856433e+01
 3.7544000e+00   3.1938133e+01
 3.7598667e+00   3.1863026e+01
 3.7653333e+00   3.1859686e+01
 3.7708000e+00   3.1890357e+01
 3.7762667e+00   3.1867869e+01
 3.7817333e+00   3.1878450e+01
 3.7872000e+00   3.1827793e+01
 3.7926667e+00   3.1850260e+01
 3.7981333e+00   3.1931566e+01
 3.8036000e+00   3.1873457e+01
 3.8090667e+00   3.1860641e+01
 3.8145333e+00   3.1806170e+01
 3.8200000e+00   3.1876722e+01
 3.8254667e+00   3.1895207e+01
 3.8309333e+00   3.1888453e+01
 3.8364000e+00   3.1875193e+01
 3.8418667e+00   3.1913731e+01
 3.8473333e+00   3.1936247e+01
 3.8528000e+00   3.1966437e+01
 3.8582667e+00   3.2066683e+01
 3.8637333e+00   3.2028095e+01
 3.8692000e+00   3.2446255e+01
 3.8746667e+00   3.2231927e+01
 3.8801333e+00   3.2239756e+01
 3.8856000e+00   3.2119167e+01
 3.8910667e+00   3.2229856e+01
 3.8965333e+00   3.2121269e+01
 3.9020000e+00   3.2273878e+01
 3.9074667e+00   3.2238410e+01
 3.9129333e+00   3.2307554e+01
 3.9184000e+00   3.2371580e+01
 3.9238667e+00   3.2481002e+01
 3.9293333e+00   3.2630473e+01
 3.9348000e+00   3.2777909e+01
 3.9402667e+00   3.3150247e+01
 3.9457333e+00   3.3303488e+01
 3.9512000e+00   3.3640173e+01
 3.9566667e+00   3.3510134e+01
 3.9621333e+00   3.3608979e+01
 3.9676000e+00   3.3441163e+01
 3.9730667e+00   3.3354040e+01
 3.9785333e+00   3.3200286e+01
 3.9840000e+00   3.3113799e+01
 3.9894667e+00   3.3017579e+01
 3.9949333e+00   3.3120985e+01
 4.0004000e+00   3.2802454e+01
 4.0058667e+00   3.2939976e+01
 4.0113333e+00   3.2961345e+01
 4.0168000e+00   3.3026944e+01
 4.0222667e+00   3.3040430e+01
 4.0277333e+00   3.3122623e+01
 4.0332000e+00   3.3195753e+01
 4.0386667e+00   3.3150983e+01
 4.0441333e+00   3.3401098e+01
 4.0496000e+00   3.3297266e+01
 4.0550667e+00   3.3617278e+01
 4.0605333e+00   3.3722412e+01
 4.0660000e+00   3.3855844e+01
 4.0714667e+00   3.4164259e+01
 4.0769333e+00   3.4668218e+01
 4.0824000e+00   3.5208559e+01
 4.0878667e+00   3.6689775e+01
 4.0933333e+00   3.8585874e+01
 4.0988000e+00   4.3820196e+01
 4.1042667e+00   5.0271445e+01
 4.1097333e+00   6.1443948e+01
 4.1152000e+00   8.2011968e+01
 4.1206667e+00   1.1442718e+02
 4.1261333e+00   1.5395218e+02
 4.1316000e+00   2.0703960e+02
 4.1370667e+00   2.2954097e+02
 4.1425333e+00   2.4291102e+02
 4.1480000e+00   2.3371630e+02
 4.1534667e+00   2.1926477e+02
 4.1589333e+00   2.0602734e+02
 4.1644000e+00   1.7718787e+02
 4.1698667e+00   1.9924967e+02
 4.1753333e+00   1.8101106e+02
 4.1808000e+00   1.3373230e+02
 4.1862667e+00   1.3341062e+02
 4.1917333e+00   9.9790516e+01
 4.1972000e+00   7.3669768e+01
 4.2026667e+00   5.4489122e+01
 4.2081333e+00   4.5848036e+01
 4.2136000e+00   3.9651164e+01
 4.2190667e+00   3.7634037e+01
 4.2245333e+00   3.6635350e+01
 4.2300000e+00   3.5850551e+01
 4.2354667e+00   3.5831907e+01
 4.2409333e+00   3.5634218e+01
 4.2464000e+00   3.5286492e+01
 4.2518667e+00   3.5350058e+01
 4.2573333e+00   3.5104635e+01
 4.2628000e+00   3.4961395e+01
 4.2682667e+00   3.4892365e+01
 4.2737333e+00   3.4785487e+01
 4.2792000e+00   3.4594161e+01
 4.2846667e+00   3.4675461e+01
 4.2901333e+00   3.4560234e+01
 4.2956000e+00   3.4549295e+01
 4.3010667e+00   3.4609243e+01
 4.3065333e+00   3.4513604e+01
 4.3120000e+00   3.4594795e+01
 4.3174667e+00   3.4505045e+01
 4.3229333e+00   3.4487058e+01
 4.3284000e+00   3.4237069e+01
 4.3338667e+00   3.4518424e+01
 4.3393333e+00   3.4195362e+01
 4.3448000e+00   3.4504397e+01
 4.3502667e+00   3.4264040e+01
 4.3557333e+00   3.4555103e+01
 4.3612000e+00   3.4371221e+01
 4.3666667e+00   3.4606585e+01
 4.3721333e+00   3.4561434e+01
 4.3776000e+00   3.4759410e+01
 4.3830667e+00   3.4818839e+01
 4.3885333e+00   3.4978062e+01
 4.3940000e+00   3.5105471e+01
 4.3994667e+00   3.5154800e+01
 4.4049333e+00   3.5499128e+01
 4.4104000e+00   3.5433954e+01
 4.4158667e+00   3.6598357e+01
 4.4213333e+00   3.6706573e+01
 4.4268000e+00   3.8454464e+01
 4.4322667e+00   3.9289966e+01
 4.4377333e+00   4.4127220e+01
 4.4432000e+00   5.1795724e+01
 4.4486667e+00   6.7992827e+01
 4.4541333e+00   8.8756440e+01
 4.4596000e+00   1.1254435e+02
 4.4650667e+00   1.4188246e+02
 4.4705333e+00   1.8176570e+02
 4.4760000e+00   2.2929264e+02
 4.4814667e+00   2.2406061e+02
 4.4869333e+00   2.8024555e+02
 4.4924000e+00   2.6023339e+02
 4.4978667e+00   2.9998208e+02
 4.5033333e+00   2.8283525e+02
 4.5088000e+00   4.2181431e+02
 4.5142667e+00   2.6562807e+02
 4.5197333e+00   3.7444283e+02
 4.5252000e+00   1.4348495e+02
 4.5306667e+00   2.6340956e+02
 4.5361333e+00   8.6158639e+01
 4.5416000e+00   1.2369920e+02
 4.5470667e+00   6.1551578e+01
 4.5525333e+00   6.8918581e+01
 4.5580000e+00   6.3544408e+01
 4.5634667e+00   7.0686667e+01
 4.5689333e+00   7.9649998e+01
 4.5744000e+00   9.2277843e+01
 4.5798667e+00   9.5275389e+01
 4.5853333e+00   1.1193735e+02
 4.5908000e+00   1.2255717e+02
 4.5962667e+00   1.1816824e+02
 4.6017333e+00   1.4676887e+02
 4.6072000e+00   1.3472714e+02
 4.6126667e+00   1.6707228e+02
 4.6181333e+00   1.3214493e+02
 4.6236000e+00   1.6985629e+02
 4.6290667e+00   1.1306763e+02
 4.6345333e+00   1.4089558e+02
 4.6400000e+00   9.2272464e+01
 4.6454667e+00   9.6087299e+01
 4.6509333e+00   8.1109370e+01
 4.6564000e+00   7.5296436e+01
 4.6618667e+00   8.1425229e+01
 4.6673333e+00   8.6030165e+01
 4.6728000e+00   1.2782206e+02
 4.6782667e+00   1.5828001e+02
 4.6837333e+00   2.7391805e+02
 4.6892000e+00   3.5864495e+02
 4.6946667e+00   5.0246635e+02
 4.7001333e+00   6.4427677e+02
 4.7056000e+00   7.5976801e+02
 4.7110667e+00   8.5294269e+02
 4.7165333e+00   1.0299564e+03
 4.7220000e+00   1.0431127e+03
 4.7274667e+00   1.1951955e+03
 4.7329333e+00   9.4989170e+02
 4.7384000e+00   9.7870482e+02
 4.7438667e+00   7.3119107e+02
 4.7493333e+00   5.3210487e+02
 4.7548000e+00   4.3896827e+02
 4.7602667e+00   2.1914276e+02
 4.7657333e+00   2.5447099e+02
 4.7712000e+00   1.1448371e+02
 4.7766667e+00   1.0562339e+02
 4.7821333e+00   5.9009157e+01
 4.7876000e+00   5.8542488e+01
 4.7930667e+00   4.5826931e+01
 4.7985333e+00   4.6250281e+01
 4.8040000e+00   4.2526490e+01
 4.8094667e+00   4.2799447e+01
 4.8149333e+00   4.1037970e+01
 4.8204000e+00   4.1649985e+01
 4.8258667e+00   4.0622346e+01
 4.8313333e+00   4.0946831e+01
 4.8368000e+00   4.1042115e+01
 4.8422667e+00   3.9845192e+01
 4.8477333e+00   4.1760311e+01
 4.8532000e+00   4.0140038e+01
 4.8586667e+00   4.0986499e+01
 4.8641333e+00   3.9625931e+01
 4.8696000e+00   4.0327369e+01
 4.8750667e+00   3.9250584e+01
 4.8805333e+00   3.9825171e+01
 4.8860000e+00   3.9686883e+01
 4.8914667e+00   3.9405974e+01
 4.8969333e+00   3.9712008e+01
 4.9024000e+00   3.9449629e+01
 4.9078667e+00   3.9567385e+01
 4.9133333e+00   4.0022477e+01
 4.9188000e+00   4.0494222e+01
 4.9242667e+00   3.9899967e+01
 4.9297333e+00   4.1139570e+01
 4.9352000e+00   4.0615815e+01
 4.9406667e+00   4.1334700e+01
 4.9461333e+00   4.1624375e+01
 4.9516000e+00   4.2217099e+01
 4.9570667e+00   4.2221334e+01
 4.9625333e+00   4.4114551e+01
 4.9680000e+00   4.4200604e+01
 4.9734667e+00   4.5513664e+01
 4.9789333e+00   4.6654837e+01
 4.9844000e+00   5.1310900e+01
 4.9898667e+00   5.2428763e+01
 4.9953333e+00   6.2734257e+01
 5.0008000e+00   7.1628477e+01
 5.0062667e+00   1.0783200e+02
 5.0117333e+00   1.1239333e+02
 5.0172000e+00   1.5785365e+02
 5.0226667e+00   1.7623158e+02
 5.0281333e+00   2.2963422e+02
 5.0336000e+00   3.1936487e+02
 5.0390667e+00   3.9032027e+02
 5.0445333e+00   4.5354271e+02
 5.0500000e+00   5.5134250e+02
 5.0554667e+00   5.3620254e+02
 5.0609333e+00   5.1436360e+02
 5.0664000e+00   5.0501663e+02
 5.0718667e+00   4.9289178e+02
 5.0773333e+00   4.3265486e+02
 5.0828000e+00   4.0371949e+02
 5.0882667e+00   3.5701052e+02
 5.0937333e+00   3.0532748e+02
 5.0992000e+00   2.3038750e+02
 5.1046667e+00   1.7989878e+02
 5.1101333e+00   1.6070285e+02
 5.1156000e+00   1.1112235e+02
 5.1210667e+00   8.2079999e+01
 5.1265333e+00   6.4244981e+01
 5.1320000e+00   5.3764297e+01
 5.1374667e+00   4.9834261e+01
 5.1429333e+00   4.8158350e+01
 5.1484000e+00   4.6893592e+01
 5.1538667e+00   4.6758474e+01
 5.1593333e+00   4.6299667e+01
 5.1648000e+00   4.6902533e+01
 5.1702667e+00   4.5890697e+01
 5.1757333e+00   4.6372361e+01
 5.1812000e+00   4.4994301e+01
 5.1866667e+00   4.5006101e+01
 5.1921333e+00   4.3703752e+01
 5.1976000e+00   4.2880281e+01
 5.2030667e+00   4.1460313e+01
 5.2085333e+00   4.0820081e+01
 5.2140000e+00   3.9548597e+01
 5.2194667e+00   3.8478264e+01
 5.2249333e+00   3.7787611e+01
 5.2304000e+00   3.6967111e+01
 5.2358667e+00   3.6051316e+01
 5.2413333e+00   3.5787394e+01
 5.2468000e+00   3.5391490e+01
 5.2522667e+00   3.4751479e+01
 5.2577333e+00   3.4835416e+01
 5.2632000e+00   3.4274101e+01
 5.2686667e+00   3.4331918e+01
 5.2741333e+00   3.4065507e+01
 5.2796000e+00   3.3893180e+01
 5.2850667e+00   3.3596745e+01
 5.2905333e+00   3.3701989e+01
 5.2960000e+00   3.3311346e+01
 5.3014667e+00   3.3391964e+01
 5.3069333e+00   3.3126105e+01
 5.3124000e+00   3.3049292e+01
 5.3178667e+00   3.3030797e+01
 5.3233333e+00   3.3083203e+01
 5.3288000e+00   3.2838817e+01
 5.3342667e+00   3.2943794e+01
 5.3397333e+00   3.2843260e+01
 5.3452000e+00   3.2658845e+01
 5.3506667e+00   3.2775792e+01
 5.3561333e+00   3.2550773e+01
 5.3616000e+00   3.2562860e+01
 5.3670667e+00   3.2345235e+01
 5.3725333e+00   3.2346742e+01
 5.3780000e+00   3.2224096e+01
 5.3834667e+00   3.1963111e+01
 5.3889333e+00   3.2041668e+01
 5.3944000e+00   3.1836152e+01
 5.3998667e+00   3.1760030e+01
 5.4053333e+00   3.1757435e+01
 5.4108000e+00   3.1704930e+01
 5.4162667e+00   3.1577242e+01
 5.4217333e+00   3.1776309e+01
 5.4272000e+00   3.1536095e+01
 5.4326667e+00   3.1534407e+01
 5.4381333e+00   3.1496035e+01
 5.4436000e+00   3.1473827e+01
 5.4490667e+00   3.1380496e+01
 5.4545333e+00   3.1442241e+01
 5.4600000e+00   3.1301967e+01
 5.4654667e+00   3.1237667e+01
 5.4709333e+00   3.1247541e+01
 5.4764000e+00   3.1180101e+01
 5.4818667e+00   3.1183802e+01
 5.4873333e+00   3.1199788e+01
 5.4928000e+00   3.1112409e+01
 5.4982667e+00   3.1065773e+01
 5.5037333e+00   3.1119760e+01
 5.5092000e+00   3.0959193e+01
 5.5146667e+00   3.1108357e+01
 5.5201333e+00   3.0934471e+01
 5.5256000e+00   3.0967265e+01
 5.5310667e+00   3.0880551e+01
 5.5365333e+00   3.1037389e+01
 5.5420000e+00   3.0979849e+01
 5.5474667e+00   3.1046226e+01
 5.5529333e+00   3.1036295e+01
 5.5584000e+00   3.1026106e+01
 5.5638667e+00   3.1051378e+01
 5.5693333e+00   3.1109942e+01
 5.5748000e+00   3.1149983e+01
 5.5802667e+00   3.1185143e+01
 5.5857333e+00   3.1355633e+01
 5.5912000e+00   3.1366601e+01
 5.5966667e+00   3.1485682e+01
 5.6021333e+00   3.1526683e+01
 5.6076000e+00   3.1518789e+01
 5.6130667e+00   3.1619625e+01
 5.6185333e+00   3.1687290e+01
 5.6240000e+00   3.1532717e+01
 5.6294667e+00   3.1528377e+01
 5.6349333e+00   3.1517413e+01
 5.6404000e+00   3.1427682e+01
 5.6458667e+00   3.1485760e+01
 5.6513333e+00   3.1591099e+01
 5.6568000e+00   3.1612800e+01
 5.6622667e+00   3.1521844e+01
 5.6677333e+00   3.1938600e+01
 5.6732000e+00   3.1717738e+01
 5.6786667e+00   3.1993428e+01
 5.6841333e+00   3.1974519e+01
 5.6896000e+00   3.2116996e+01
 5.6950667e+00   3.2227804e+01
 5.7005333e+00   3.2436111e+01
 5.7060000e+00   3.2490281e+01
 5.7114667e+00   3.2869936e+01
 5.7169333e+00   3.2797909e+01
 5.7224000e+00   3.3161686e+01
 5.7278667e+00   3.3171212e+01
 5.7333333e+00   3.3714420e+01
 5.7388000e+00   3.3759922e+01
 5.7442667e+00   3.4000703e+01
 5.7497333e+00   3.4434471e+01
 5.7552000e+00   3.4695400e+01
 5.7606667e+00   3.5586430e+01
 5.7661333e+00   3.5804775e+01
 5.7716000e+00   3.7503655e+01
 5.7770667e+00   3.8055030e+01
 5.7825333e+00   4.0745466e+01
 5.7880000e+00   4.4387198e+01
 5.7934667e+00   4.8983010e+01
 5.7989333e+00   6.4252829e+01
 5.8044000e+00   6.2022921e+01
 5.8098667e+00   8.5526198e+01
 5.8153333e+00   9.2547133e+01
 5.8208000e+00   1.2342443e+02
 5.8262667e+00   1.5439442e+02
 5.8317333e+00   2.1567408e+02
 5.8372000e+00   2.3767096e+02
 5.8426667e+00   2.6731513e+02
 5.8481333e+00   3.1116251e+02
 5.8536000e+00   2.5263136e+02
 5.8590667e+00   2.7360161e+02
 5.8645333e+00   2.6355902e+02
 5.8700000e+00   2.4931695e+02
 5.8754667e+00   1.6885777e+02
 5.8809333e+00   1.9046865e+02
 5.8864000e+00   1.4210590e+02
 5.8918667e+00   1.1490792e+02
 5.8973333e+00   8.2078161e+01
 5.9028000e+00   8.0606268e+01
 5.9082667e+00   5.6231709e+01
 5.9137333e+00   5.1425961e+01
 5.9192000e+00   4.1118093e+01
 5.9246667e+00   3.9182113e+01
 5.9301333e+00   3.6521634e+01
 5.9356000e+00   3.5955970e+01
 5.9410667e+00   3.4536886e+01
 5.9465333e+00   3.4727947e+01
 5.9520000e+00   3.3719805e+01
 5.9574667e+00   3.3857202e+01
 5.9629333e+00   3.3117534e+01
 5.9684000e+00   3.3510895e+01
 5.9738667e+00   3.2694607e+01
 5.9793333e+00   3.3105965e+01
 5.9848000e+00   3.2721535e+01
 5.9902667e+00   3.2743993e+01
 5.9957333e+00   3.2500313e+01
 6.0012000e+00   3.2517547e+01
 6.0066667e+00   3.2378310e+01
 6.0121333e+00   3.2282339e+01
 6.0176000e+00   3.2275601e+01
 6.0230667e+00   3.2127269e+01
 6.0285333e+00   3.2248114e+01
 6.0340000e+00   3.2185504e+01
 6.0394667e+00   3.2398031e+01
 6.0449333e+00   3.2377386e+01
 6.0504000e+00   3.2890944e+01
 6.0558667e+00   3.3190280e+01
 6.0613333e+00   3.4110274e+01
 6.0668000e+00   3.5793727e+01
 6.0722667e+00   3.8944254e+01
 6.0777333e+00   4.4249094e+01
 6.0832000e+00   5.4432300e+01
 6.0886667e+00   6.8973416e+01
 6.0941333e+00   8.8097494e+01
 6.0996000e+00   1.1905065e+02
 6.1050667e+00   1.5050930e+02
 6.1105333e+00   1.8654334e+02
 6.1160000e+00   2.1683301e+02
 6.1214667e+00   2.2732714e+02
 6.1269333e+00   2.1629644e+02
 6.1324000e+00   2.0791189e+02
 6.1378667e+00   1.7859313e+02
 6.1433333e+00   1.6412484e+02
 6.1488000e+00   1.2074534e+02
 6.1542667e+00   1.0329971e+02
 6.1597333e+00   6.8571209e+01
 6.1652000e+00   5.6027119e+01
 6.1706667e+00   4.3571436e+01
 6.1761333e+00   3.8852741e+01
 6.1816000e+00   3.4506040e+01
 6.1870667e+00   3.3196769e+01
 6.1925333e+00   3.1733870e+01
 6.1980000e+00   3.1342569e+01
 6.2034667e+00   3.0886009e+01
 6.2089333e+00   3.0819142e+01
 6.2144000e+00   3.0581119e+01
 6.2198667e+00   3.0450987e+01
 6.2253333e+00   3.0497333e+01
 6.2308000e+00   3.0297146e+01
 6.2362667e+00   3.0380378e+01
 6.2417333e+00   3.0169833e+01
 6.2472000e+00   3.0167398e+01
 6.2526667e+00   3.0000065e+01
 6.2581333e+00   3.0047987e+01
 6.2636000e+00   2.9792097e+01
 6.2690667e+00   2.9871562e+01
 6.2745333e+00   2.9696004e+01
 6.2800000e+00   2.9679329e+01
 6.2854667e+00   2.9613222e+01
 6.2909333e+00   2.9649441e+01
 6.2964000e+00   2.9511446e+01
 6.3018667e+00   2.9562522e+01
 6.3073333e+00   2.9526373e+01
 6.3128000e+00   2.9480911e+01
 6.3182667e+00   2.9453264e+01
 6.3237333e+00   2.9416793e+01
 6.3292000e+00   2.9347413e+01
 6.3346667e+00   2.9419579e+01
 6.3401333e+00   2.9446257e+01
 6.3456000e+00   2.9273261e+01
 6.3510667e+00   2.9437392e+01
 6.3565333e+00   2.9374105e+01
 6.3620000e+00   2.9491072e+01
 6.3674667e+00   2.9378255e+01
 6.3729333e+00   2.9587233e+01
 6.3784000e+00   2.9687815e+01
 6.3838667e+00   2.9531579e+01
 6.3893333e+00   2.9576112e+01
 6.3948000e+00   2.9410838e+01
 6.4002667e+00   2.9444267e+01
 6.4057333e+00   2.9472943e+01
 6.4112000e+00   2.9493872e+01
 6.4166667e+00   3.0010101e+01
 6.4221333e+00   2.9741659e+01
 6.4276000e+00   2.9711858e+01
 6.4330667e+00   2.9935685e+01
 6.4385333e+00   2.9897476e+01
 6.4440000e+00   3.0359828e+01
 6.4494667e+00   3.0680929e+01
 6.4549333e+00   3.1278865e+01
 6.4604000e+00   3.1648292e+01
 6.4658667e+00   3.3037174e+01
 6.4713333e+00   3.3651373e+01
 6.4768000e+00   3.5156386e+01
 6.4822667e+00   3.6349267e+01
 6.4877333e+00   3.8516466e+01
 6.4932000e+00   3.9300017e+01
 6.4986667e+00   4.2366284e+01
 6.5041333e+00   4.1844577e+01
 6.5096000e+00   4.2879837e+01
 6.5150667e+00   4.3978320e+01
 6.5205333e+00   4.2045370e+01
 6.5260000e+00   4.2195920e+01
 6.5314667e+00   4.0784054e+01
 6.5369333e+00   3.9774448e+01
 6.5424000e+00   3.7700609e+01
 6.5478667e+00   3.6551963e+01
 6.5533333e+00   3.5431803e+01
 6.5588000e+00   3.4315884e+01
 6.5642667e+00   3.2767677e+01
 6.5697333e+00   3.2075777e+01
 6.5752000e+00   3.1334050e+01
 6.5806667e+00   3.1025283e+01
 6.5861333e+00   3.0413869e+01
 6.5916000e+00   3.0240832e+01
 6.5970667e+00   3.0023581e+01
 6.6025333e+00   2.9743665e+01
 6.6080000e+00   2.9864578e+01
 6.6134667e+00   2.9525060e+01
 6.6189333e+00   2.9496740e+01
 6.6244000e+00   2.9425264e+01
 6.6298667e+00   2.9526585e+01
 6.6353333e+00   2.9338323e+01
 6.6408000e+00   2.9333378e+01
 6.6462667e+00   2.9307041e+01
 6.6517333e+00   2.9336778e+01
 6.6572000e+00   2.9194735e+01
 6.6626667e+00   2.9342296e+01
 6.6681333e+00   2.9205378e+01
 6.6736000e+00   2.9307029e+01
 6.6790667e+00   2.9248175e+01
 6.6845333e+00   2.9345858e+01
 6.6900000e+00   2.9233304e+01
 6.6954667e+00   2.9281675e+01
 6.7009333e+00   2.9303027e+01
 6.7064000e+00   2.9234483e+01
 6.7118667e+00   2.9296375e+01
 6.7173333e+00   2.9229678e+01
 6.7228000e+00   2.9399947e+01
 6.7282667e+00   2.9329907e+01
 6.7337333e+00   2.9432450e+01
 6.7392000e+00   2.9264023e+01
 6.7446667e+00   2.9512935e+01
 6.7501333e+00   2.9394770e+01
 6.7556000e+00   2.9452459e+01
 6.7610667e+00   2.9442464e+01
 6.7665333e+00   2.9527926e+01
 6.7720000e+00   2.9485751e+01
 6.7774667e+00   2.9515555e+01
 6.7829333e+00   2.9502559e+01
 6.7884000e+00   2.9546543e+01
 6.7938667e+00   2.9555969e+01
 6.7993333e+00   2.9528727e+01
 6.8048000e+00   2.9677737e+01
 6.8102667e+00   2.9658191e+01
 6.8157333e+00   2.9763732e+01
 6.8212000e+00   3.0262733e+01
 6.8266667e+00   2.9938415e+01
 6.8321333e+00   2.9839954e+01
 6.8376000e+00   2.9800965e+01
 6.8430667e+00   2.9711116e+01
 6.8485333e+00   2.9780969e+01
 6.8540000e+00   2.9704147e+01
 6.8594667e+00   2.9835866e+01
 6.8649333e+00   2.9722505e+01
 6.8704000e+00   2.9825841e+01
 6.8758667e+00   2.9850154e+01
 6.8813333e+00   2.9904172e+01
 6.8868000e+00   2.9902387e+01
 6.8922667e+00   2.9981284e+01
 6.8977333e+00   2.9952004e+01
 6.9032000e+00   3.0055679e+01
 6.9086667e+00   3.0154835e+01
 6.9141333e+00   3.0011164e+01
 6.9196000e+00   3.0204823e+01
 6.9250667e+00   3.0182179e+01
 6.9305333e+00   3.0255986e+01
 6.9360000e+00   3.0232533e+01
 6.9414667e+00   3.0399786e+01
 6.9469333e+00   3.0218668e+01
 6.9524000e+00   3.0400770e+01
 6.9578667e+00   3.0360238e+01
 6.9633333e+00   3.0559224e+01
 6.9688000e+00   3.0567739e+01
 6.9742667e+00   3.0621180e+01
 6.9797333e+00   3.0869187e+01
 6.9852000e+00   3.0897285e+01
 6.9906667e+00   3.0828171e+01
 6.9961333e+00   3.0844693e+01
 7.0016000e+00   3.0931615e+01
 7.0070667e+00   3.0908464e+01
 7.0125333e+00   3.0990516e+01
 7.0180000e+00   3.0997361e+01
 7.0234667e+00   3.1156432e+01
 7.0289333e+00   3.1056975e+01
 7.0344000e+00   3.1290662e+01
 7.0398667e+00   3.1320360e+01
 7.0453333e+00   3.1364907e+01
 7.0508000e+00   3.1487416e+01
 7.0562667e+00   3.1742278e+01
 7.0617333e+00   3.1578155e+01
 7.0672000e+00   3.1895865e+01
 7.0726667e+00   3.1884737e+01
 7.0781333e+00   3.2086705e+01
 7.0836000e+00   3.2101502e+01
 7.0890667e+00   3.2352890e+01
 7.0945333e+00   3.2349370e+01
 7.1000000e+00   3.2647114e+01
 7.1054667e+00   3.2917201e+01
 7.1109333e+00   3.3195114e+01
 7.1164000e+00   3.3749837e+01
 7.1218667e+00   3.4486041e+01
 7.1273333e+00   3.5682915e+01
 7.1328000e+00   3.7454290e+01
 7.1382667e+00   4.1650101e+01
 7.1437333e+00   4.7250267e+01
 7.1492000e+00   5.3214913e+01
 7.1546667e+00   7.0733910e+01
 7.1601333e+00   8.8103795e+01
 7.1656000e+00   1.1039412e+02
 7.1710667e+00   1.4792143e+02
 7.1765333e+00   1.7395681e+02
 7.1820000e+00   2.0868432e+02
 7.1874667e+00   2.3902583e+02
 7.1929333e+00   2.6402950e+02
 7.1984000e+00   2.3832462e+02
 7.2038667e+00   2.6546904e+02
 7.2093333e+00   1.9416344e+02
 7.2148000e+00   1.7193271e+02
 7.2202667e+00   1.2583433e+02
 7.2257333e+00   1.0462443e+02
 7.2312000e+00   8.3066506e+01
 7.2366667e+00   6.6606391e+01
 7.2421333e+00   5.4713507e+01
 7.2476000e+00   4.5614903e+01
 7.2530667e+00   3.9652824e+01
 7.2585333e+00   3.6521976e+01
 7.2640000e+00   3.5273300e+01
 7.2694667e+00   3.3920806e+01
 7.2749333e+00   3.3642870e+01
 7.2804000e+00   3.3263906e+01
 7.2858667e+00   3.3271982e+01
 7.2913333e+00   3.3067187e+01
 7.2968000e+00   3.3130604e+01
 7.3022667e+00   3.2983480e+01
 7.3077333e+00   3.2917984e+01
 7.3132000e+00   3.2896810e+01
 7.3186667e+00   3.2851265e+01
 7.3241333e+00   3.2824576e+01
 7.3296000e+00   3.2679775e+01
 7.3350667e+00   3.2783106e+01
 7.3405333e+00   3.2620901e+01
 7.3460000e+00   3.2733047e+01
 7.3514667e+00   3.2526913e+01
 7.3569333e+00   3.2529193e+01
 7.3624000e+00   3.2302258e+01
 7.3678667e+00   3.2430196e+01
 7.3733333e+00   3.2234229e+01
 7.3788000e+00   3.2246462e+01
 7.3842667e+00   3.2107824e+01
 7.3897333e+00   3.2173583e+01
 7.3952000e+00   3.1967725e+01
 7.4006667e+00   3.2113354e+01
 7.4061333e+00   3.1991090e+01
 7.4116000e+00   3.1920218e+01
 7.4170667e+00   3.1915677e+01
 7.4225333e+00   3.1853848e+01
 7.4280000e+00   3.1827319e+01
 7.4334667e+00   3.1751822e+01
 7.4389333e+00   3.1819275e+01
 7.4444000e+00   3.1790217e+01
 7.4498667e+00   3.1792885e+01
 7.4553333e+00   3.1644962e+01
 7.4608000e+00   3.1694541e+01
 7.4662667e+00   3.1654706e+01
 7.4717333e+00   3.1698037e+01
 7.4772000e+00   3.1591413e+01
 7.4826667e+00   3.1616933e+01
 7.4881333e+00   3.1621514e+01
 7.4936000e+00   3.1636747e+01
 7.4990667e+00   3.1673397e+01
 7.5045333e+00   3.1703260e+01
 7.5100000e+00   3.1743970e+01
 7.5154667e+00   3.1720247e+01
 7.5209333e+00   3.1781250e+01
 7.5264000e+00   3.1646448e+01
 7.5318667e+00   3.1838016e+01
 7.5373333e+00   3.1727881e+01
 7.5428000e+00   3.1809076e+01
 7.5482667e+00   3.1797150e+01
 7.5537333e+00   3.1967161e+01
 7.5592000e+00   3.1848038e+01
 7.5646667e+00   3.1888864e+01
 7.5701333e+00   3.1805342e+01
 7.5756000e+00   3.1868798e+01
 7.5810667e+00   3.1884969e+01
 7.5865333e+00   3.1978992e+01
 7.5920000e+00   3.2018852e+01
 7.5974667e+00   3.2066925e+01
 7.6029333e+00   3.2004381e+01
 7.6084000e+00   3.2077405e+01
 7.6138667e+00   3.2052626e+01
 7.6193333e+00   3.2244817e+01
 7.6248000e+00   3.2124936e+01
 7.6302667e+00   3.2230640e+01
 7.6357333e+00   3.2034187e+01
 7.6412000e+00   3.1983416e+01
 7.6466667e+00   3.2072635e+01
 7.6521333e+00   3.1957773e+01
 7.6576000e+00   3.2091360e+01
 7.6630667e+00   3.2029893e+01
 7.6685333e+00   3.2163155e+01
 7.6740000e+00   3.2093408e+01
 7.6794667e+00   3.2188232e+01
 7.6849333e+00   3.2171562e+01
 7.6904000e+00   3.2230073e+01
 7.6958667e+00   3.2197911e+01
 7.7013333e+00   3.2359081e+01
 7.7068000e+00   3.2291596e+01
 7.7122667e+00   3.2421771e+01
 7.7177333e+00   3.2477167e+01
 7.7232000e+00   3.2492867e+01
 7.7286667e+00   3.2567632e+01
 7.7341333e+00   3.2528113e+01
 7.7396000e+00   3.2712400e+01
 7.7450667e+00   3.2530344e+01
 7.7505333e+00   3.2746936e+01
 7.7560000e+00   3.2617192e+01
 7.7614667e+00   3.2786279e+01
 7.7669333e+00   3.2816305e+01
 7.7724000e+00   3.2928133e+01
 7.7778667e+00   3.2892490e+01
 7.7833333e+00   3.3141985e+01
 7.7888000e+00   3.3073398e+01
 7.7942667e+00   3.3257741e+01
 7.7997333e+00   3.3296825e+01
 7.8052000e+00   3.3413882e+01
 7.8106667e+00   3.3509328e+01
 7.8161333e+00   3.3772808e+01
 7.8216000e+00   3.3959055e+01
 7.8270667e+00   3.4166590e+01
 7.8325333e+00   3.4485437e+01
 7.8380000e+00   3.4619057e+01
 7.8434667e+00   3.4941334e+01
 7.8489333e+00   3.5272842e+01
 7.8544000e+00   3.5735621e+01
 7.8598667e+00   3.6246581e+01
 7.8653333e+00   3.7113951e+01
 7.8708000e+00   3.8740858e+01
 7.8762667e+00   4.1200548e+01
 7.8817333e+00   4.4928101e+01
 7.8872000e+00   5.4390955e+01
 7.8926667e+00   6.7295141e+01
 7.8981333e+00   8.4056021e+01
 7.9036000e+00   1.1343215e+02
 7.9090667e+00   1.4468591e+02
 7.9145333e+00   1.8179646e+02
 7.9200000e+00   2.2538031e+02
 7.9254667e+00   2.7534654e+02
 7.9309333e+00   3.0830375e+02
 7.9364000e+00   3.3374285e+02
 7.9418667e+00   3.2158719e+02
 7.9473333e+00   2.8999706e+02
 7.9528000e+00   2.3161665e+02
 7.9582667e+00   1.7886855e+02
 7.9637333e+00   1.3818178e+02
 7.9692000e+00   1.0659392e+02
 7.9746667e+00   8.6341440e+01
 7.9801333e+00   7.4898234e+01
 7.9856000e+00   6.5131052e+01
 7.9910667e+00   5.8330089e+01
 7.9965333e+00   5.7367397e+01
 8.0020000e+00   5.3987162e+01
 8.0074667e+00   5.0479107e+01
 8.0129333e+00   5.1123090e+01
 8.0184000e+00   4.7636502e+01
 8.0238667e+00   4.5156886e+01
 8.0293333e+00   4.4837298e+01
 8.0348000e+00   4.2805794e+01
 8.0402667e+00   4.0438015e+01
 8.0457333e+00   4.0119477e+01
 8.0512000e+00   3.8908352e+01
 8.0566667e+00   3.7745076e+01
 8.0621333e+00   3.7382551e+01
 8.0676000e+00   3.6799082e+01
 8.0730667e+00   3.6291619e+01
 8.0785333e+00   3.5973930e+01
 8.0840000e+00   3.5843870e+01
 8.0894667e+00   3.5593383e+01
 8.0949333e+00   3.5439733e+01
 8.1004000e+00   3.5333571e+01
 8.1058667e+00   3.5320590e+01
 8.1113333e+00   3.5287049e+01
 8.1168000e+00   3.5310406e+01
 8.1222667e+00   3.5278010e+01
 8.1277333e+00   3.5211282e+01
 8.1332000e+00   3.5458734e+01
 8.1386667e+00   3.5244640e+01
 8.1441333e+00   3.5564460e+01
 8.1496000e+00   3.5356129e+01
 8.1550667e+00   3.5650171e+01
 8.1605333e+00   3.5429879e+01
 8.1660000e+00   3.5791393e+01
 8.1714667e+00   3.5586664e+01
 8.1769333e+00   3.5913326e+01
 8.1824000e+00   3.5816978e+01
 8.1878667e+00   3.6245477e+01
 8.1933333e+00   3.6189240e+01
 8.1988000e+00   3.6481451e+01
 8.2042667e+00   3.6891041e+01
 8.2097333e+00   3.7340117e+01
 8.2152000e+00   3.8343264e+01
 8.2206667e+00   3.9184943e+01
 8.2261333e+00   4.2583735e+01
 8.2316000e+00   4.3885883e+01
 8.2370667e+00   6.2726722e+01
 8.2425333e+00   6.5029397e+01
 8.2480000e+00   8.1555123e+01
 8.2534667e+00   8.9269399e+01
 8.2589333e+00   1.0037640e+02
 8.2644000e+00   1.2271924e+02
 8.2698667e+00   1.1932900e+02
 8.2753333e+00   1.2881645e+02
 8.2808000e+00   1.5356703e+02
 8.2862667e+00   1.2267320e+02
 8.2917333e+00   1.1898631e+02
 8.2972000e+00   1.0031182e+02
 8.3026667e+00   9.8416148e+01
 8.3081333e+00   1.1154614e+02
 8.3136000e+00   1.2558309e+02
 8.3190667e+00   1.0807246e+02
 8.3245333e+00   9.4662753e+01
 8.3300000e+00   1.0063454e+02
 8.3354667e+00   6.4996428e+01
 8.3409333e+00   6.8386299e+01
 8.3464000e+00   4.6121897e+01
 8.3518667e+00   4.6338229e+01
 8.3573333e+00   4.0212235e+01
 8.3628000e+00   3.9826785e+01
 8.3682667e+00   3.8102855e+01
 8.3737333e+00   3.8102671e+01
 8.3792000e+00   3.7575851e+01
 8.3846667e+00   3.7730739e+01
 8.3901333e+00   3.7497608e+01
 8.3956000e+00   3.7968932e+01
 8.4010667e+00   3.7859030e+01
 8.4065333e+00   3.8412811e+01
 8.4120000e+00   3.8664143e+01
 8.4174667e+00   3.9514603e+01
 8.4229333e+00   4.0413968e+01
 8.4284000e+00   4.2705227e+01
 8.4338667e+00   4.6055505e+01
 8.4393333e+00   5.3356277e+01
 8.4448000e+00   6.2533966e+01
 8.4502667e+00   8.1223567e+01
 8.4557333e+00   9.9083479e+01
 8.4612000e+00   1.2733115e+02
 8.4666667e+00   1.5819872e+02
 8.4721333e+00   1.8185229e+02
 8.4776000e+00   2.0249282e+02
 8.4830667e+00   2.2183102e+02
 8.4885333e+00   2.2029179e+02
 8.4940000e+00   2.2246079e+02
 8.4994667e+00   2.1113164e+02
 8.5049333e+00   1.9158193e+02
 8.5104000e+00   1.6750395e+02
 8.5158667e+00   1.3838127e+02
 8.5213333e+00   1.1318487e+02
 8.5268000e+00   8.7159796e+01
 8.5322667e+00   7.2750622e+01
 8.5377333e+00   5.8084504e+01
 8.5432000e+00   5.1919663e+01
 8.5486667e+00   4.6756731e+01
 8.5541333e+00   4.6106005e+01
 8.5596000e+00   4.7276267e+01
 8.5650667e+00   5.1768504e+01
 8.5705333e+00   5.8548155e+01
 8.5760000e+00   7.0517082e+01
 8.5814667e+00   8.4813651e+01
 8.5869333e+00   1.0378467e+02
 8.5924000e+00   1.2128536e+02
 8.5978667e+00   1.3848381e+02
 8.6033333e+00   1.5136576e+02
 8.6088000e+00   1.5382765e+02
 8.6142667e+00   1.5403279e+02
 8.6197333e+00   1.4985908e+02
 8.6252000e+00   1.3678448e+02
 8.6306667e+00   1.2660584e+02
 8.6361333e+00   1.0333021e+02
 8.6416000e+00   8.6385119e+01
 8.6470667e+00   6.8817310e+01
 8.6525333e+00   5.6979280e+01
 8.6580000e+00   4.8813842e+01
 8.6634667e+00   4.3435094e+01
 8.6689333e+00   4.0293590e+01
 8.6744000e+00   3.8039861e+01
 8.6798667e+00   3.6806379e+01
 8.6853333e+00   3.6165745e+01
 8.6908000e+00   3.5630115e+01
 8.6962667e+00   3.5359452e+01
 8.7017333e+00   3.5032340e+01
 8.7072000e+00   3.5190556e+01
 8.7126667e+00   3.4720097e+01
 8.7181333e+00   3.5155403e+01
 8.7236000e+00   3.4703734e+01
 8.7290667e+00   3.4900719e+01
 8.7345333e+00   3.4541200e+01
 8.7400000e+00   3.4318131e+01
 8.7454667e+00   3.3983491e+01
 8.7509333e+00   3.4171129e+01
 8.7564000e+00   3.3796076e+01
 8.7618667e+00   3.3953735e+01
 8.7673333e+00   3.3692711e+01
 8.7728000e+00   3.3757812e+01
 8.7782667e+00   3.3552003e+01
 8.7837333e+00   3.3540818e+01
 8.7892000e+00   3.3323316e+01
 8.7946667e+00   3.3298130e+01
 8.8001333e+00   3.3291909e+01
 8.8056000e+00   3.3135624e+01
 8.8110667e+00   3.3130497e+01
 8.8165333e+00   3.3202914e+01
 8.8220000e+00   3.3234567e+01
 8.8274667e+00   3.3505695e+01
 8.8329333e+00   3.3578738e+01
 8.8384000e+00   3.2802240e+01
 8.8438667e+00   3.2921537e+01
 8.8493333e+00   3.2505339e+01
 8.8548000e+00   3.2710639e+01
 8.8602667e+00   3.2433279e+01
 8.8657333e+00   3.2552466e+01
 8.8712000e+00   3.2255546e+01
 8.8766667e+00   3.2419069e+01
 8.8821333e+00   3.2178329e+01
 8.8876000e+00   3.2365019e+01
 8.8930667e+00   3.2117253e+01
 8.8985333e+00   3.2349982e+01
 8.9040000e+00   3.2339499e+01
 8.9094667e+00   3.2324724e+01
 8.9149333e+00   3.2395369e+01
 8.9204000e+00   3.2430706e+01
 8.9258667e+00   3.2729842e+01
 8.9313333e+00   3.2370107e+01
 8.9368000e+00   3.2590664e+01
 8.9422667e+00   3.2610455e+01
 8.9477333e+00   3.2840440e+01
 8.9532000e+00   3.3185079e+01
 8.9586667e+00   3.3687136e+01
 8.9641333e+00   3.4212818e+01
 8.9696000e+00   3.6606678e+01
 8.9750667e+00   3.8993472e+01
 8.9805333e+00   4.1111829e+01
 8.9860000e+00   4.5829134e+01
 8.9914667e+00   4.8092356e+01
 8.9969333e+00   4.6636913e+01
 9.0024000e+00   5.3600934e+01
 9.0078667e+00   5.2890684e+01
 9.0133333e+00   4.8153153e+01
 9.0188000e+00   5.1589527e+01
 9.0242667e+00   5.0088364e+01
 9.0297333e+00   5.0232158e+01
 9.0352000e+00   4.9049742e+01
 9.0406667e+00   4.4760450e+01
 9.0461333e+00   3.9545589e+01
 9.0516000e+00   3.5715030e+01
 9.0570667e+00   3.3066796e+01
 9.0625333e+00   3.1851254e+01
 9.0680000e+00   3.0825387e+01
 9.0734667e+00   3.0579311e+01
 9.0789333e+00   3.0045546e+01
 9.0844000e+00   3.0104183e+01
 9.0898667e+00   2.9767225e+01
 9.0953333e+00   2.9776329e+01
 9.1008000e+00   2.9610977e+01
 9.1062667e+00   2.9739066e+01
 9.1117333e+00   2.9478440e+01
 9.1172000e+00   2.9577221e+01
 9.1226667e+00   2.9366528e+01
 9.1281333e+00   2.9426035e+01
 9.1336000e+00   2.9249887e+01
 9.1390667e+00   2.9414358e+01
 9.1445333e+00   2.9237755e+01
 9.1500000e+00   2.9246929e+01
 9.1554667e+00   2.9389274e+01
 9.1609333e+00   2.9430720e+01
 9.1664000e+00   2.9449419e+01
 9.1718667e+00   2.9790549e+01
 9.1773333e+00   2.9982176e+01
 9.1828000e+00   3.0011755e+01
 9.1882667e+00   3.0737253e+01
 9.1937333e+00   3.0763965e+01
 9.1992000e+00   3.1007547e+01
 9.2046667e+00   3.1457700e+01
 9.2101333e+00   3.1788737e+01
 9.2156000e+00   3.1258747e+01
 9.2210667e+00   3.2163883e+01
 9.2265333e+00   3.1705480e+01
 9.2320000e+00   3.1512764e+01
 9.2374667e+00   3.1472461e+01
 9.2429333e+00   3.1439955e+01
 9.2484000e+00   3.0814129e+01
 9.2538667e+00   3.0807263e+01
 9.2593333e+00   3.0371956e+01
 9.2648000e+00   3.0074127e+01
 9.2702667e+00   2.9804584e+01
 9.2757333e+00   2.9600375e+01
 9.2812000e+00   2.9279335e+01
 9.2866667e+00   2.9077898e+01
 9.2921333e+00   2.8874332e+01
 9.2976000e+00   2.8573359e+01
 9.3030667e+00   2.8400350e+01
 9.3085333e+00   2.8302807e+01
 9.3140000e+00   2.8159168e+01
 9.3194667e+00   2.8007706e+01
 9.3249333e+00   2.8052265e+01
 9.3304000e+00   2.8042404e+01
 9.3358667e+00   2.7873012e+01
 9.3413333e+00   2.7787922e+01
 9.3468000e+00   2.7813505e+01
 9.3522667e+00   2.7674770e+01
 9.3577333e+00   2.7790110e+01
 9.3632000e+00   2.7697804e+01
 9.3686667e+00   2.7831648e+01
 9.3741333e+00   2.7787185e+01
 9.3796000e+00   2.7860033e+01
 9.3850667e+00   2.7907487e+01
 9.3905333e+00   2.8177038e+01
 9.3960000e+00   2.8679117e+01
 9.4014667e+00   2.9331699e+01
 9.4069333e+00   3.0452149e+01
 9.4124000e+00   3.2237591e+01
 9.4178667e+00   3.4395662e+01
 9.4233333e+00   3.7757568e+01
 9.4288000e+00   4.1110193e+01
 9.4342667e+00   4.3875750e+01
 9.4397333e+00   4.6955183e+01
 9.4452000e+00   4.8517489e+01
 9.4506667e+00   4.9328675e+01
 9.4561333e+00   5.0350935e+01
 9.4616000e+00   4.9938626e+01
 9.4670667e+00   4.9616673e+01
 9.4725333e+00   4.8026235e+01
 9.4780000e+00   4.5989230e+01
 9.4834667e+00   4.2502336e+01
 9.4889333e+00   3.9319027e+01
 9.4944000e+00   3.5749225e+01
 9.4998667e+00   3.3755927e+01
 9.5053333e+00   3.0848512e+01
 9.5108000e+00   3.0027010e+01
 9.5162667e+00   2.8572649e+01
 9.5217333e+00   2.8269017e+01
 9.5272000e+00   2.7869167e+01
 9.5326667e+00   2.7733331e+01
 9.5381333e+00   2.7618662e+01
 9.5436000e+00   2.7719268e+01
 9.5490667e+00   2.7622130e+01
 9.5545333e+00   2.7763521e+01
 9.5600000e+00   2.7730796e+01
 9.5654667e+00   2.7864012e+01
 9.5709333e+00   2.7947896e+01
 9.5764000e+00   2.8109509e+01
 9.5818667e+00   2.7990728e+01
 9.5873333e+00   2.8205964e+01
 9.5928000e+00   2.8135258e+01
 9.5982667e+00   2.8373769e+01
 9.6037333e+00   2.8364110e+01
 9.6092000e+00   2.8596688e+01
 9.6146667e+00   2.8687350e+01
 9.6201333e+00   2.8969720e+01
 9.6256000e+00   2.9255821e+01
 9.6310667e+00   2.9797035e+01
 9.6365333e+00   3.0060230e+01
 9.6420000e+00   3.1592264e+01
 9.6474667e+00   3.4667014e+01
 9.6529333e+00   3.8440465e+01
 9.6584000e+00   4.5645913e+01
 9.6638667e+00   6.5869070e+01
 9.6693333e+00   6.5348862e+01
 9.6748000e+00   9.2661735e+01
 9.6802667e+00   9.9771807e+01
 9.6857333e+00   1.0331251e+02
 9.6912000e+00   1.4390116e+02
 9.6966667e+00   1.7025513e+02
 9.7021333e+00   1.6243363e+02
 9.7076000e+00   1.9259643e+02
 9.7130667e+00   2.0024119e+02
 9.7185333e+00   1.9654374e+02
 9.7240000e+00   2.2700074e+02
 9.7294667e+00   1.9739130e+02
 9.7349333e+00   2.4844560e+02
 9.7404000e+00   1.6634709e+02
 9.7458667e+00   1.8923698e+02
 9.7513333e+00   1.2912928e+02
 9.7568000e+00   1.2696328e+02
 9.7622667e+00   7.4092585e+01
 9.7677333e+00   7.8305114e+01
 9.7732000e+00   4.9627888e+01
 9.7786667e+00   4.2023821e+01
 9.7841333e+00   3.6546609e+01
 9.7896000e+00   3.2500647e+01
 9.7950667e+00   3.0940344e+01
 9.8005333e+00   2.9763958e+01
 9.8060000e+00   2.9377771e+01
 9.8114667e+00   2.8831579e+01
 9.8169333e+00   2.8608197e+01
 9.8224000e+00   2.8547874e+01
 9.8278667e+00   2.8194076e+01
 9.8333333e+00   2.7968492e+01
 9.8388000e+00   2.7856924e+01
 9.8442667e+00   2.7689507e+01
 9.8497333e+00   2.7639649e+01
 9.8552000e+00   2.7541519e+01
 9.8606667e+00   2.7642622e+01
 9.8661333e+00   2.7592354e+01
 9.8716000e+00   2.7842471e+01
 9.8770667e+00   2.8180122e+01
 9.8825333e+00   2.9009916e+01
 9.8880000e+00   3.0236582e+01
 9.8934667e+00   3.2359796e+01
 9.8989333e+00   3.5142409e+01
 9.9044000e+00   3.8777216e+01
 9.9098667e+00   4.3126376e+01
 9.9153333e+00   4.8050791e+01
 9.9208000e+00   5.1683944e+01
 9.9262667e+00   5.3768743e+01
 9.9317333e+00   5.2916226e+01
 9.9372000e+00   4.9982085e+01
 9.9426667e+00   4.5477333e+01
 9.9481333e+00   4.0964968e+01
 9.9536000e+00   3.7170829e+01
 9.9590667e+00   3.3713441e+01
 9.9645333e+00   3.1271883e+01
 9.9700000e+00   2.9220609e+01
 9.9754667e+00   2.7955385e+01
 9.9809333e+00   2.7161166e+01
 9.9864000e+00   2.6712074e+01
 9.9918667e+00   2.6334025e+01
 9.9973333e+00   2.6262293e+01
 1.0002800e+01   2.6150469e+01
 1.0008267e+01   2.6058676e+01
 1.0013733e+01   2.6193908e+01
 1.0019200e+01   2.6184387e+01
 1.0024667e+01   2.6536227e+01
 1.0030133e+01   2.6144645e+01
 1.0035600e+01   2.8306614e+01
 1.0041067e+01   2.6418204e+01
 1.0046533e+01   2.6303178e+01
 1.0052000e+01   2.6240869e+01
 1.0057467e+01   2.6217431e+01
 1.0062933e+01   2.6145607e+01
 1.0068400e+01   2.6354886e+01
 1.0073867e+01   2.6619728e+01
 1.0079333e+01   2.6636135e+01
 1.0084800e+01   2.7675841e+01
 1.0090267e+01   2.9503609e+01
 1.0095733e+01   3.0566851e+01
 1.0101200e+01   3.7850287e+01
 1.0106667e+01   4.7993722e+01
 1.0112133e+01   3.7753427e+01
 1.0117600e+01   5.1682333e+01
 1.0123067e+01   7.1888597e+01
 1.0128533e+01   6.2910491e+01
 1.0134000e+01   8.4699441e+01
 1.0139467e+01   6.5233151e+01
 1.0144933e+01   6.7734876e+01
 1.0150400e+01   5.9558204e+01
 1.0155867e+01   6.3042513e+01
 1.0161333e+01   7.1566980e+01
 1.0166800e+01   5.6810667e+01
 1.0172267e+01   7.6015004e+01
 1.0177733e+01   5.4918907e+01
 1.0183200e+01   5.4390272e+01
 1.0188667e+01   4.4152486e+01
 1.0194133e+01   3.8329686e+01
 1.0199600e+01   3.5674532e+01
 1.0205067e+01   3.3336662e+01
 1.0210533e+01   2.8572193e+01
 1.0216000e+01   2.7674030e+01
 1.0221467e+01   2.6932618e+01
 1.0226933e+01   2.6439122e+01
 1.0232400e+01   2.6398409e+01
 1.0237867e+01   2.6358350e+01
 1.0243333e+01   2.6527193e+01
 1.0248800e+01   2.6515953e+01
 1.0254267e+01   2.6855546e+01
 1.0259733e+01   2.7107547e+01
 1.0265200e+01   2.7398764e+01
 1.0270667e+01   2.7692259e+01
 1.0276133e+01   2.8210745e+01
 1.0281600e+01   2.8444311e+01
 1.0287067e+01   2.8923073e+01
 1.0292533e+01   2.9359034e+01
 1.0298000e+01   2.9660112e+01
 1.0303467e+01   2.9960294e+01
 1.0308933e+01   3.0408677e+01
 1.0314400e+01   3.0377305e+01
 1.0319867e+01   3.0724607e+01
 1.0325333e+01   3.0480908e+01
 1.0330800e+01   3.0544131e+01
 1.0336267e+01   3.0311204e+01
 1.0341733e+01   3.0106174e+01
 1.0347200e+01   2.9715696e+01
 1.0352667e+01   2.9381737e+01
 1.0358133e+01   2.9107285e+01
 1.0363600e+01   2.8497255e+01
 1.0369067e+01   2.8357878e+01
 1.0374533e+01   2.7855568e+01
 1.0380000e+01   2.7720061e+01
 1.0385467e+01   2.7206041e+01
 1.0390933e+01   2.6971351e+01
 1.0396400e+01   2.6606499e+01
 1.0401867e+01   2.6403555e+01
 1.0407333e+01   2.6204592e+01
 1.0412800e+01   2.6059351e+01
 1.0418267e+01   2.5875713e+01
 1.0423733e+01   2.5773266e+01
 1.0429200e+01   2.5574946e+01
 1.0434667e+01   2.5590072e+01
 1.0440133e+01   2.5429731e+01
 1.0445600e+01   2.5400820e+01
 1.0451067e+01   2.5366566e+01
 1.0456533e+01   2.5355796e+01
 1.0462000e+01   2.5236939e+01
 1.0467467e+01   2.5224477e+01
 1.0472933e+01   2.5150710e+01
 1.0478400e+01   2.5242364e+01
 1.0483867e+01   2.5139075e+01
 1.0489333e+01   2.5122350e+01
 1.0494800e+01   2.5158168e+01
 1.0500267e+01   2.5134377e+01
 1.0505733e+01   2.5162779e+01
 1.0511200e+01   2.5100687e+01
 1.0516667e+01   2.5185622e+01
 1.0522133e+01   2.5193428e+01
 1.0527600e+01   2.5191636e+01
 1.0533067e+01   2.5354869e+01
 1.0538533e+01   2.5196642e+01
 1.0544000e+01   2.5146527e+01
 1.0549467e+01   2.5141429e+01
 1.0554933e+01   2.5161819e+01
 1.0560400e+01   2.5125230e+01
 1.0565867e+01   2.5180606e+01
 1.0571333e+01   2.5265125e+01
 1.0576800e+01   2.5216543e+01
 1.0582267e+01   2.5186732e+01
 1.0587733e+01   2.5234218e+01
 1.0593200e+01   2.5304171e+01
 1.0598667e+01   2.5290307e+01
 1.0604133e+01   2.5348727e+01
 1.0609600e+01   2.5397820e+01
 1.0615067e+01   2.5416209e+01
 1.0620533e+01   2.5547512e+01
 1.0626000e+01   2.5532743e+01
 1.0631467e+01   2.5596239e+01
 1.0636933e+01   2.5771444e+01
 1.0642400e+01   2.5923898e+01
 1.0647867e+01   2.6120623e+01
 1.0653333e+01   2.6633158e+01
 1.0658800e+01   2.7315874e+01
 1.0664267e+01   2.8417833e+01
 1.0669733e+01   3.0631115e+01
 1.0675200e+01   3.3262141e+01
 1.0680667e+01   3.8070205e+01
 1.0686133e+01   4.3540960e+01
 1.0691600e+01   4.9970047e+01
 1.0697067e+01   5.6827664e+01
 1.0702533e+01   6.2481762e+01
 1.0708000e+01   6.7771194e+01
 1.0713467e+01   7.0575990e+01
 1.0718933e+01   7.3517314e+01
 1.0724400e+01   7.3740200e+01
 1.0729867e+01   7.3641167e+01
 1.0735333e+01   7.0199744e+01
 1.0740800e+01   6.6143632e+01
 1.0746267e+01   5.9100856e+01
 1.0751733e+01   5.0768287e+01
 1.0757200e+01   4.3321590e+01
 1.0762667e+01   3.7214056e+01
 1.0768133e+01   3.2670254e+01
 1.0773600e+01   2.9903912e+01
 1.0779067e+01   2.8212124e+01
 1.0784533e+01   2.7027778e+01
 1.0790000e+01   2.6464621e+01
 1.0795467e+01   2.6134830e+01
 1.0800933e+01   2.5878271e+01
 1.0806400e+01   2.5832253e+01
 1.0811867e+01   2.5648085e+01
 1.0817333e+01   2.5640333e+01
 1.0822800e+01   2.5585404e+01
 1.0828267e+01   2.5581467e+01
 1.0833733e+01   2.5595270e+01
 1.0839200e+01   2.5552998e+01
 1.0844667e+01   2.5609791e+01
 1.0850133e+01   2.5567114e+01
 1.0855600e+01   2.5501537e+01
 1.0861067e+01   2.5477404e+01
 1.0866533e+01   2.5476561e+01
 1.0872000e+01   2.5497756e+01
 1.0877467e+01   2.5556289e+01
 1.0882933e+01   2.5564065e+01
 1.0888400e+01   2.5563344e+01
 1.0893867e+01   2.5567645e+01
 1.0899333e+01   2.5612176e+01
 1.0904800e+01   2.5561290e+01
 1.0910267e+01   2.5652733e+01
 1.0915733e+01   2.5626638e+01
 1.0921200e+01   2.5696209e+01
 1.0926667e+01   2.5830158e+01
 1.0932133e+01   2.5903996e+01
 1.0937600e+01   2.6110826e+01
 1.0943067e+01   2.6385816e+01
 1.0948533e+01   2.6927894e+01
 1.0954000e+01   2.7557086e+01
 1.0959467e+01   2.8343482e+01
 1.0964933e+01   2.9552139e+01
 1.0970400e+01   3.0757172e+01
 1.0975867e+01   3.2133663e+01
 1.0981333e+01   3.4302597e+01
 1.0986800e+01   3.5983981e+01
 1.0992267e+01   3.7727465e+01
 1.0997733e+01   3.9222160e+01
 1.1003200e+01   4.0121302e+01
 1.1008667e+01   3.9736206e+01
 1.1014133e+01   3.9673188e+01
 1.1019600e+01   3.7975569e+01
 1.1025067e+01   3.6964511e+01
 1.1030533e+01   3.5101761e+01
 1.1036000e+01   3.3664079e+01
 1.1041467e+01   3.1858496e+01
 1.1046933e+01   3.0458754e+01
 1.1052400e+01   2.9067384e+01
 1.1057867e+01   2.8057635e+01
 1.1063333e+01   2.7349582e+01
 1.1068800e+01   2.6842743e+01
 1.1074267e+01   2.6496598e+01
 1.1079733e+01   2.6253802e+01
 1.1085200e+01   2.6214482e+01
 1.1090667e+01   2.6167414e+01
 1.1096133e+01   2.6198096e+01
 1.1101600e+01   2.6167846e+01
 1.1107067e+01   2.6272670e+01
 1.1112533e+01   2.6260522e+01
 1.1118000e+01   2.6460451e+01
 1.1123467e+01   2.6354771e+01
 1.1128933e+01   2.6626476e+01
 1.1134400e+01   2.6762597e+01
 1.1139867e+01   2.7996752e+01
 1.1145333e+01   2.7541248e+01
 1.1150800e+01   2.8881999e+01
 1.1156267e+01   2.8247373e+01
 1.1161733e+01   2.8077426e+01
 1.1167200e+01   2.8784307e+01
 1.1172667e+01   3.0003592e+01
 1.1178133e+01   3.1864616e+01
 1.1183600e+01   3.5148423e+01
 1.1189067e+01   3.9972250e+01
 1.1194533e+01   4.5026205e+01
