PWDR ff_004430_sum_norm_dc_0.tif Azm= 352.fxye Bank 1
2-Theta Angle (Degrees)
Intensity
       1500
 3.0000000e+00   4.5030748e+01
 3.0054667e+00   4.4822716e+01
 3.0109333e+00   4.4646688e+01
 3.0164000e+00   4.4489940e+01
 3.0218667e+00   4.4323161e+01
 3.0273333e+00   4.4074754e+01
 3.0328000e+00   4.4262310e+01
 3.0382667e+00   4.3834467e+01
 3.0437333e+00   4.3653230e+01
 3.0492000e+00   4.3401693e+01
 3.0546667e+00   4.3320382e+01
 3.0601333e+00   4.3096758e+01
 3.0656000e+00   4.3496566e+01
 3.0710667e+00   4.2385886e+01
 3.0765333e+00   4.2462711e+01
 3.0820000e+00   4.2089149e+01
 3.0874667e+00   4.1948835e+01
 3.0929333e+00   4.1600516e+01
 3.0984000e+00   4.1453338e+01
 3.1038667e+00   4.1455703e+01
 3.1093333e+00   4.1215163e+01
 3.1148000e+00   4.0948731e+01
 3.1202667e+00   4.0988665e+01
 3.1257333e+00   4.0655704e+01
 3.1312000e+00   4.0497494e+01
 3.1366667e+00   4.0493169e+01
 3.1421333e+00   4.0314618e+01
 3.1476000e+00   4.0189004e+01
 3.1530667e+00   4.0086200e+01
 3.1585333e+00   3.9878889e+01
 3.1640000e+00   3.9756752e+01
 3.1694667e+00   3.9610149e+01
 3.1749333e+00   3.9425492e+01
 3.1804000e+00   3.9497253e+01
 3.1858667e+00   3.9202395e+01
 3.1913333e+00   3.9242411e+01
 3.1968000e+00   3.8913282e+01
 3.2022667e+00   3.8944445e+01
 3.2077333e+00   3.8780955e+01
 3.2132000e+00   3.8632422e+01
 3.2186667e+00   3.8603577e+01
 3.2241333e+00   3.8486158e+01
 3.2296000e+00   3.8355521e+01
 3.2350667e+00   3.7934313e+01
 3.2405333e+00   3.8051489e+01
 3.2460000e+00   3.7824786e+01
 3.2514667e+00   3.7893533e+01
 3.2569333e+00   3.7749338e+01
 3.2624000e+00   3.7841370e+01
 3.2678667e+00   3.7510071e+01
 3.2733333e+00   3.7531724e+01
 3.2788000e+00   3.7298191e+01
 3.2842667e+00   3.7352611e+01
 3.2897333e+00   3.7310987e+01
 3.2952000e+00   3.7257469e+01
 3.3006667e+00   3.6958694e+01
 3.3061333e+00   3.6982877e+01
 3.3116000e+00   3.6913594e+01
 3.3170667e+00   3.6812646e+01
 3.3225333e+00   3.6753297e+01
 3.3280000e+00   3.6585514e+01
 3.3334667e+00   3.6635760e+01
 3.3389333e+00   3.6494413e+01
 3.3444000e+00   3.6499771e+01
 3.3498667e+00   3.6368202e+01
 3.3553333e+00   3.6326253e+01
 3.3608000e+00   3.6213289e+01
 3.3662667e+00   3.6342318e+01
 3.3717333e+00   3.6052083e+01
 3.3772000e+00   3.6102674e+01
 3.3826667e+00   3.6142867e+01
 3.3881333e+00   3.6012858e+01
 3.3936000e+00   3.6091848e+01
 3.3990667e+00   3.5990546e+01
 3.4045333e+00   3.5805580e+01
 3.4100000e+00   3.5831790e+01
 3.4154667e+00   3.5693130e+01
 3.4209333e+00   3.5704623e+01
 3.4264000e+00   3.5674920e+01
 3.4318667e+00   3.5607890e+01
 3.4373333e+00   3.5631494e+01
 3.4428000e+00   3.5521132e+01
 3.4482667e+00   3.5363903e+01
 3.4537333e+00   3.5445089e+01
 3.4592000e+00   3.5335916e+01
 3.4646667e+00   3.5382642e+01
 3.4701333e+00   3.5303004e+01
 3.4756000e+00   3.5350277e+01
 3.4810667e+00   3.5217984e+01
 3.4865333e+00   3.5291802e+01
 3.4920000e+00   3.5452535e+01
 3.4974667e+00   3.5314117e+01
 3.5029333e+00   3.5484673e+01
 3.5084000e+00   3.5400145e+01
 3.5138667e+00   3.5143068e+01
 3.5193333e+00   3.5176529e+01
 3.5248000e+00   3.5397478e+01
 3.5302667e+00   3.5297906e+01
 3.5357333e+00   3.5271070e+01
 3.5412000e+00   3.5047418e+01
 3.5466667e+00   3.5281251e+01
 3.5521333e+00   3.5152346e+01
 3.5576000e+00   3.5453660e+01
 3.5630667e+00   3.5353559e+01
 3.5685333e+00   3.5449186e+01
 3.5740000e+00   3.5298755e+01
 3.5794667e+00   3.5273395e+01
 3.5849333e+00   3.5195549e+01
 3.5904000e+00   3.5179415e+01
 3.5958667e+00   3.5130159e+01
 3.6013333e+00   3.5168678e+01
 3.6068000e+00   3.5058119e+01
 3.6122667e+00   3.5038704e+01
 3.6177333e+00   3.4862630e+01
 3.6232000e+00   3.4872763e+01
 3.6286667e+00   3.5031431e+01
 3.6341333e+00   3.5072248e+01
 3.6396000e+00   3.5084270e+01
 3.6450667e+00   3.4910268e+01
 3.6505333e+00   3.5036438e+01
 3.6560000e+00   3.5007597e+01
 3.6614667e+00   3.4959122e+01
 3.6669333e+00   3.5196714e+01
 3.6724000e+00   3.5175919e+01
 3.6778667e+00   3.5031241e+01
 3.6833333e+00   3.5152771e+01
 3.6888000e+00   3.5058821e+01
 3.6942667e+00   3.5200421e+01
 3.6997333e+00   3.4992920e+01
 3.7052000e+00   3.5234637e+01
 3.7106667e+00   3.5224095e+01
 3.7161333e+00   3.5371371e+01
 3.7216000e+00   3.5310043e+01
 3.7270667e+00   3.5296862e+01
 3.7325333e+00   3.5343103e+01
 3.7380000e+00   3.5469190e+01
 3.7434667e+00   3.5475726e+01
 3.7489333e+00   3.5500499e+01
 3.7544000e+00   3.5507153e+01
 3.7598667e+00   3.5437240e+01
 3.7653333e+00   3.5352105e+01
 3.7708000e+00   3.5599451e+01
 3.7762667e+00   3.5628310e+01
 3.7817333e+00   3.5575327e+01
 3.7872000e+00   3.5718009e+01
 3.7926667e+00   3.5665307e+01
 3.7981333e+00   3.5670894e+01
 3.8036000e+00   3.5749762e+01
 3.8090667e+00   3.5848636e+01
 3.8145333e+00   3.5771676e+01
 3.8200000e+00   3.6008689e+01
 3.8254667e+00   3.6204170e+01
 3.8309333e+00   3.6291784e+01
 3.8364000e+00   3.6325352e+01
 3.8418667e+00   3.6327791e+01
 3.8473333e+00   3.6357921e+01
 3.8528000e+00   3.6345288e+01
 3.8582667e+00   3.6452206e+01
 3.8637333e+00   3.6469105e+01
 3.8692000e+00   3.6643779e+01
 3.8746667e+00   3.6586792e+01
 3.8801333e+00   3.6841869e+01
 3.8856000e+00   3.6990850e+01
 3.8910667e+00   3.7010706e+01
 3.8965333e+00   3.7220038e+01
 3.9020000e+00   3.7410790e+01
 3.9074667e+00   3.7517557e+01
 3.9129333e+00   3.7749206e+01
 3.9184000e+00   3.7771735e+01
 3.9238667e+00   3.7908306e+01
 3.9293333e+00   3.8132079e+01
 3.9348000e+00   3.8151177e+01
 3.9402667e+00   3.8307841e+01
 3.9457333e+00   3.8019948e+01
 3.9512000e+00   3.8155197e+01
 3.9566667e+00   3.8200264e+01
 3.9621333e+00   3.8321953e+01
 3.9676000e+00   3.8366614e+01
 3.9730667e+00   3.8436112e+01
 3.9785333e+00   3.8554429e+01
 3.9840000e+00   3.8615196e+01
 3.9894667e+00   3.8532919e+01
 3.9949333e+00   3.8923614e+01
 4.0004000e+00   3.8942977e+01
 4.0058667e+00   3.9236843e+01
 4.0113333e+00   3.9245589e+01
 4.0168000e+00   3.9529241e+01
 4.0222667e+00   3.9641581e+01
 4.0277333e+00   4.0097491e+01
 4.0332000e+00   4.0510832e+01
 4.0386667e+00   4.0822432e+01
 4.0441333e+00   4.1474355e+01
 4.0496000e+00   4.2209610e+01
 4.0550667e+00   4.4032398e+01
 4.0605333e+00   4.6173760e+01
 4.0660000e+00   5.1576091e+01
 4.0714667e+00   5.8867637e+01
 4.0769333e+00   7.2050225e+01
 4.0824000e+00   8.6248789e+01
 4.0878667e+00   1.0972292e+02
 4.0933333e+00   1.3604437e+02
 4.0988000e+00   1.7343885e+02
 4.1042667e+00   1.9950780e+02
 4.1097333e+00   2.2627827e+02
 4.1152000e+00   2.4018761e+02
 4.1206667e+00   2.3836213e+02
 4.1261333e+00   2.2602967e+02
 4.1316000e+00   2.0339661e+02
 4.1370667e+00   1.7560373e+02
 4.1425333e+00   1.4249184e+02
 4.1480000e+00   1.1375804e+02
 4.1534667e+00   9.3024936e+01
 4.1589333e+00   7.5048102e+01
 4.1644000e+00   6.2602164e+01
 4.1698667e+00   5.5029989e+01
 4.1753333e+00   4.9862294e+01
 4.1808000e+00   4.7265695e+01
 4.1862667e+00   4.6029236e+01
 4.1917333e+00   4.5084509e+01
 4.1972000e+00   4.4892486e+01
 4.2026667e+00   4.4620055e+01
 4.2081333e+00   4.4495199e+01
 4.2136000e+00   4.4155007e+01
 4.2190667e+00   4.4228972e+01
 4.2245333e+00   4.4077352e+01
 4.2300000e+00   4.4056378e+01
 4.2354667e+00   4.4010429e+01
 4.2409333e+00   4.4034236e+01
 4.2464000e+00   4.3940875e+01
 4.2518667e+00   4.4114215e+01
 4.2573333e+00   4.4138072e+01
 4.2628000e+00   4.3928275e+01
 4.2682667e+00   4.4082946e+01
 4.2737333e+00   4.4236518e+01
 4.2792000e+00   4.4238606e+01
 4.2846667e+00   4.4322973e+01
 4.2901333e+00   4.4335970e+01
 4.2956000e+00   4.4354410e+01
 4.3010667e+00   4.4922088e+01
 4.3065333e+00   4.4518470e+01
 4.3120000e+00   4.6983695e+01
 4.3174667e+00   4.4759624e+01
 4.3229333e+00   4.5508486e+01
 4.3284000e+00   4.5059916e+01
 4.3338667e+00   4.5349596e+01
 4.3393333e+00   4.5405376e+01
 4.3448000e+00   4.5570670e+01
 4.3502667e+00   4.5896514e+01
 4.3557333e+00   4.6037711e+01
 4.3612000e+00   4.6342292e+01
 4.3666667e+00   4.6458200e+01
 4.3721333e+00   4.6842857e+01
 4.3776000e+00   4.7130441e+01
 4.3830667e+00   4.7679036e+01
 4.3885333e+00   4.8148776e+01
 4.3940000e+00   4.9229075e+01
 4.3994667e+00   5.0452367e+01
 4.4049333e+00   5.2942968e+01
 4.4104000e+00   5.7597184e+01
 4.4158667e+00   6.6394666e+01
 4.4213333e+00   8.0630560e+01
 4.4268000e+00   1.0006610e+02
 4.4322667e+00   1.2915387e+02
 4.4377333e+00   1.6617070e+02
 4.4432000e+00   2.0859750e+02
 4.4486667e+00   2.4973404e+02
 4.4541333e+00   2.8938858e+02
 4.4596000e+00   3.2069677e+02
 4.4650667e+00   3.2431519e+02
 4.4705333e+00   3.0803473e+02
 4.4760000e+00   2.7121671e+02
 4.4814667e+00   2.2956669e+02
 4.4869333e+00   1.8261965e+02
 4.4924000e+00   1.4436350e+02
 4.4978667e+00   1.2166443e+02
 4.5033333e+00   1.0607322e+02
 4.5088000e+00   1.0556652e+02
 4.5142667e+00   1.0229575e+02
 4.5197333e+00   1.1016555e+02
 4.5252000e+00   1.2075408e+02
 4.5306667e+00   1.3533596e+02
 4.5361333e+00   1.4781458e+02
 4.5416000e+00   1.6185878e+02
 4.5470667e+00   1.6642364e+02
 4.5525333e+00   1.6821409e+02
 4.5580000e+00   1.5993294e+02
 4.5634667e+00   1.4934825e+02
 4.5689333e+00   1.3195069e+02
 4.5744000e+00   1.1866065e+02
 4.5798667e+00   1.0250123e+02
 4.5853333e+00   9.2074453e+01
 4.5908000e+00   8.4620884e+01
 4.5962667e+00   7.7397627e+01
 4.6017333e+00   7.4028148e+01
 4.6072000e+00   7.1557846e+01
 4.6126667e+00   7.2215116e+01
 4.6181333e+00   7.5079766e+01
 4.6236000e+00   8.2127171e+01
 4.6290667e+00   9.6451730e+01
 4.6345333e+00   1.2491472e+02
 4.6400000e+00   1.6733468e+02
 4.6454667e+00   2.3748249e+02
 4.6509333e+00   3.2657454e+02
 4.6564000e+00   4.4138142e+02
 4.6618667e+00   5.6434268e+02
 4.6673333e+00   6.8722884e+02
 4.6728000e+00   7.8415478e+02
 4.6782667e+00   8.7084444e+02
 4.6837333e+00   9.0223724e+02
 4.6892000e+00   8.9090475e+02
 4.6946667e+00   8.0268535e+02
 4.7001333e+00   7.1351532e+02
 4.7056000e+00   5.8247847e+02
 4.7110667e+00   4.6259517e+02
 4.7165333e+00   3.4851463e+02
 4.7220000e+00   2.5454181e+02
 4.7274667e+00   1.8161180e+02
 4.7329333e+00   1.3010340e+02
 4.7384000e+00   9.6929890e+01
 4.7438667e+00   7.8132607e+01
 4.7493333e+00   6.8694669e+01
 4.7548000e+00   6.4143054e+01
 4.7602667e+00   6.0576476e+01
 4.7657333e+00   5.8913623e+01
 4.7712000e+00   5.7261572e+01
 4.7766667e+00   5.6110774e+01
 4.7821333e+00   5.5149178e+01
 4.7876000e+00   5.4548173e+01
 4.7930667e+00   5.3800381e+01
 4.7985333e+00   5.3437544e+01
 4.8040000e+00   5.3318718e+01
 4.8094667e+00   5.2765183e+01
 4.8149333e+00   5.2653255e+01
 4.8204000e+00   5.2773578e+01
 4.8258667e+00   5.2350404e+01
 4.8313333e+00   5.2116558e+01
 4.8368000e+00   5.2163185e+01
 4.8422667e+00   5.1808610e+01
 4.8477333e+00   5.1898377e+01
 4.8532000e+00   5.1834435e+01
 4.8586667e+00   5.2015016e+01
 4.8641333e+00   5.1865379e+01
 4.8696000e+00   5.2340339e+01
 4.8750667e+00   5.1940019e+01
 4.8805333e+00   5.2742279e+01
 4.8860000e+00   5.2467841e+01
 4.8914667e+00   5.3099165e+01
 4.8969333e+00   5.3331084e+01
 4.9024000e+00   5.4063615e+01
 4.9078667e+00   5.4065416e+01
 4.9133333e+00   5.5453132e+01
 4.9188000e+00   5.6217657e+01
 4.9242667e+00   5.7832353e+01
 4.9297333e+00   5.9993250e+01
 4.9352000e+00   6.4542540e+01
 4.9406667e+00   7.7394169e+01
 4.9461333e+00   8.1950711e+01
 4.9516000e+00   1.1939364e+02
 4.9570667e+00   1.2145838e+02
 4.9625333e+00   1.8513589e+02
 4.9680000e+00   1.9263182e+02
 4.9734667e+00   3.2749784e+02
 4.9789333e+00   2.8507639e+02
 4.9844000e+00   3.8934040e+02
 4.9898667e+00   3.8598532e+02
 4.9953333e+00   3.6732862e+02
 5.0008000e+00   4.1752156e+02
 5.0062667e+00   3.1585916e+02
 5.0117333e+00   3.3441058e+02
 5.0172000e+00   2.5677164e+02
 5.0226667e+00   2.3015133e+02
 5.0281333e+00   2.3061601e+02
 5.0336000e+00   1.4459202e+02
 5.0390667e+00   1.3770615e+02
 5.0445333e+00   9.0644505e+01
 5.0500000e+00   7.5300056e+01
 5.0554667e+00   6.6250904e+01
 5.0609333e+00   6.1169309e+01
 5.0664000e+00   5.7996566e+01
 5.0718667e+00   5.6825635e+01
 5.0773333e+00   5.4715604e+01
 5.0828000e+00   5.3919230e+01
 5.0882667e+00   5.2773912e+01
 5.0937333e+00   5.2234229e+01
 5.0992000e+00   5.1260595e+01
 5.1046667e+00   5.0541107e+01
 5.1101333e+00   5.0369104e+01
 5.1156000e+00   4.9607422e+01
 5.1210667e+00   4.9033627e+01
 5.1265333e+00   4.8815786e+01
 5.1320000e+00   4.8159029e+01
 5.1374667e+00   4.8033955e+01
 5.1429333e+00   4.7463603e+01
 5.1484000e+00   4.7271155e+01
 5.1538667e+00   4.6922278e+01
 5.1593333e+00   4.6615768e+01
 5.1648000e+00   4.6470919e+01
 5.1702667e+00   4.5959826e+01
 5.1757333e+00   4.6001016e+01
 5.1812000e+00   4.5419650e+01
 5.1866667e+00   4.5405949e+01
 5.1921333e+00   4.5074727e+01
 5.1976000e+00   4.4868143e+01
 5.2030667e+00   4.4623720e+01
 5.2085333e+00   4.4620232e+01
 5.2140000e+00   4.4235866e+01
 5.2194667e+00   4.4196141e+01
 5.2249333e+00   4.3939827e+01
 5.2304000e+00   4.3763151e+01
 5.2358667e+00   4.3581388e+01
 5.2413333e+00   4.3454745e+01
 5.2468000e+00   4.3144543e+01
 5.2522667e+00   4.3099480e+01
 5.2577333e+00   4.2994286e+01
 5.2632000e+00   4.2781938e+01
 5.2686667e+00   4.2673730e+01
 5.2741333e+00   4.2580330e+01
 5.2796000e+00   4.2427574e+01
 5.2850667e+00   4.2305886e+01
 5.2905333e+00   4.2126187e+01
 5.2960000e+00   4.2076838e+01
 5.3014667e+00   4.1953633e+01
 5.3069333e+00   4.2009308e+01
 5.3124000e+00   4.1812567e+01
 5.3178667e+00   4.1841900e+01
 5.3233333e+00   4.1709639e+01
 5.3288000e+00   4.1547235e+01
 5.3342667e+00   4.1406133e+01
 5.3397333e+00   4.1462841e+01
 5.3452000e+00   4.1008434e+01
 5.3506667e+00   4.1281867e+01
 5.3561333e+00   4.0968807e+01
 5.3616000e+00   4.1194854e+01
 5.3670667e+00   4.0833413e+01
 5.3725333e+00   4.0899024e+01
 5.3780000e+00   4.0772934e+01
 5.3834667e+00   4.0584765e+01
 5.3889333e+00   4.1031277e+01
 5.3944000e+00   4.0435023e+01
 5.3998667e+00   4.0512605e+01
 5.4053333e+00   4.0211746e+01
 5.4108000e+00   4.0278081e+01
 5.4162667e+00   4.0075904e+01
 5.4217333e+00   4.0135121e+01
 5.4272000e+00   4.0037448e+01
 5.4326667e+00   3.9921580e+01
 5.4381333e+00   4.0024551e+01
 5.4436000e+00   4.0021786e+01
 5.4490667e+00   3.9783310e+01
 5.4545333e+00   3.9866789e+01
 5.4600000e+00   3.9689085e+01
 5.4654667e+00   3.9795044e+01
 5.4709333e+00   3.9567518e+01
 5.4764000e+00   3.9691144e+01
 5.4818667e+00   3.9656861e+01
 5.4873333e+00   3.9491789e+01
 5.4928000e+00   3.9517055e+01
 5.4982667e+00   3.9419264e+01
 5.5037333e+00   3.9619006e+01
 5.5092000e+00   3.9245628e+01
 5.5146667e+00   3.9603769e+01
 5.5201333e+00   3.9306062e+01
 5.5256000e+00   3.9422781e+01
 5.5310667e+00   3.9279999e+01
 5.5365333e+00   3.9277876e+01
 5.5420000e+00   3.9493036e+01
 5.5474667e+00   3.9434226e+01
 5.5529333e+00   3.9495970e+01
 5.5584000e+00   3.9336637e+01
 5.5638667e+00   3.9397177e+01
 5.5693333e+00   3.9382774e+01
 5.5748000e+00   3.9551922e+01
 5.5802667e+00   3.9497474e+01
 5.5857333e+00   3.9591508e+01
 5.5912000e+00   3.9550586e+01
 5.5966667e+00   3.9518007e+01
 5.6021333e+00   3.9498297e+01
 5.6076000e+00   3.9665212e+01
 5.6130667e+00   3.9475779e+01
 5.6185333e+00   3.9774525e+01
 5.6240000e+00   3.9728620e+01
 5.6294667e+00   3.9916889e+01
 5.6349333e+00   3.9809481e+01
 5.6404000e+00   3.9750874e+01
 5.6458667e+00   4.0047039e+01
 5.6513333e+00   3.9939476e+01
 5.6568000e+00   4.0236839e+01
 5.6622667e+00   4.0257765e+01
 5.6677333e+00   4.0707588e+01
 5.6732000e+00   4.0673009e+01
 5.6786667e+00   4.1574632e+01
 5.6841333e+00   4.2233124e+01
 5.6896000e+00   4.3372861e+01
 5.6950667e+00   4.5115932e+01
 5.7005333e+00   4.9949343e+01
 5.7060000e+00   6.4887232e+01
 5.7114667e+00   6.2786560e+01
 5.7169333e+00   9.5852263e+01
 5.7224000e+00   1.0354473e+02
 5.7278667e+00   1.0323902e+02
 5.7333333e+00   1.3199717e+02
 5.7388000e+00   1.3018846e+02
 5.7442667e+00   1.3560010e+02
 5.7497333e+00   1.7393208e+02
 5.7552000e+00   1.6357260e+02
 5.7606667e+00   1.7328872e+02
 5.7661333e+00   1.8102181e+02
 5.7716000e+00   1.7545052e+02
 5.7770667e+00   1.7050810e+02
 5.7825333e+00   1.3116374e+02
 5.7880000e+00   1.2944874e+02
 5.7934667e+00   1.2495314e+02
 5.7989333e+00   1.0473283e+02
 5.8044000e+00   8.7606120e+01
 5.8098667e+00   9.8687943e+01
 5.8153333e+00   6.1164412e+01
 5.8208000e+00   6.8111457e+01
 5.8262667e+00   5.0821567e+01
 5.8317333e+00   4.4939455e+01
 5.8372000e+00   4.3519655e+01
 5.8426667e+00   4.2068287e+01
 5.8481333e+00   4.0818229e+01
 5.8536000e+00   4.0687788e+01
 5.8590667e+00   4.0113373e+01
 5.8645333e+00   3.9929647e+01
 5.8700000e+00   3.9604776e+01
 5.8754667e+00   3.9315559e+01
 5.8809333e+00   3.9147783e+01
 5.8864000e+00   3.8891281e+01
 5.8918667e+00   3.8716725e+01
 5.8973333e+00   3.8563871e+01
 5.9028000e+00   3.8449819e+01
 5.9082667e+00   3.8287892e+01
 5.9137333e+00   3.8174216e+01
 5.9192000e+00   3.8147615e+01
 5.9246667e+00   3.8067623e+01
 5.9301333e+00   3.8000925e+01
 5.9356000e+00   3.8053674e+01
 5.9410667e+00   3.7918884e+01
 5.9465333e+00   3.8085936e+01
 5.9520000e+00   3.7658219e+01
 5.9574667e+00   3.8011478e+01
 5.9629333e+00   3.7874203e+01
 5.9684000e+00   3.8160725e+01
 5.9738667e+00   3.7882708e+01
 5.9793333e+00   3.8466291e+01
 5.9848000e+00   3.8209254e+01
 5.9902667e+00   3.8213053e+01
 5.9957333e+00   3.8913326e+01
 6.0012000e+00   3.8558117e+01
 6.0066667e+00   3.9271776e+01
 6.0121333e+00   3.9894798e+01
 6.0176000e+00   4.1422972e+01
 6.0230667e+00   4.3828624e+01
 6.0285333e+00   4.8578956e+01
 6.0340000e+00   5.6312783e+01
 6.0394667e+00   6.7899631e+01
 6.0449333e+00   8.1531625e+01
 6.0504000e+00   1.0047918e+02
 6.0558667e+00   1.1841264e+02
 6.0613333e+00   1.3605820e+02
 6.0668000e+00   1.4873539e+02
 6.0722667e+00   1.5413469e+02
 6.0777333e+00   1.5626297e+02
 6.0832000e+00   1.4990287e+02
 6.0886667e+00   1.3691045e+02
 6.0941333e+00   1.2112014e+02
 6.0996000e+00   1.0202535e+02
 6.1050667e+00   8.6870148e+01
 6.1105333e+00   7.1566208e+01
 6.1160000e+00   6.0904673e+01
 6.1214667e+00   5.2018863e+01
 6.1269333e+00   4.6192327e+01
 6.1324000e+00   4.2711970e+01
 6.1378667e+00   4.0225133e+01
 6.1433333e+00   3.9536969e+01
 6.1488000e+00   3.8686389e+01
 6.1542667e+00   3.8281642e+01
 6.1597333e+00   3.7765296e+01
 6.1652000e+00   3.7529057e+01
 6.1706667e+00   3.7220823e+01
 6.1761333e+00   3.6991608e+01
 6.1816000e+00   3.7078867e+01
 6.1870667e+00   3.6773556e+01
 6.1925333e+00   3.6728013e+01
 6.1980000e+00   3.6619331e+01
 6.2034667e+00   3.6471626e+01
 6.2089333e+00   3.6535632e+01
 6.2144000e+00   3.6267537e+01
 6.2198667e+00   3.6474487e+01
 6.2253333e+00   3.6396843e+01
 6.2308000e+00   3.6257204e+01
 6.2362667e+00   3.6536029e+01
 6.2417333e+00   3.6170847e+01
 6.2472000e+00   3.6194501e+01
 6.2526667e+00   3.6468732e+01
 6.2581333e+00   3.6446896e+01
 6.2636000e+00   3.7709309e+01
 6.2690667e+00   3.6256627e+01
 6.2745333e+00   3.8183705e+01
 6.2800000e+00   3.5996196e+01
 6.2854667e+00   3.6241100e+01
 6.2909333e+00   3.5957133e+01
 6.2964000e+00   3.5838324e+01
 6.3018667e+00   3.5742332e+01
 6.3073333e+00   3.5754207e+01
 6.3128000e+00   3.5561858e+01
 6.3182667e+00   3.5730943e+01
 6.3237333e+00   3.5647367e+01
 6.3292000e+00   3.5739425e+01
 6.3346667e+00   3.5752165e+01
 6.3401333e+00   3.5852160e+01
 6.3456000e+00   3.5816023e+01
 6.3510667e+00   3.5978377e+01
 6.3565333e+00   3.6197206e+01
 6.3620000e+00   3.6300320e+01
 6.3674667e+00   3.6520244e+01
 6.3729333e+00   3.6982304e+01
 6.3784000e+00   3.7389012e+01
 6.3838667e+00   3.7958440e+01
 6.3893333e+00   3.8910338e+01
 6.3948000e+00   3.9897340e+01
 6.4002667e+00   4.1245542e+01
 6.4057333e+00   4.2648642e+01
 6.4112000e+00   4.4322134e+01
 6.4166667e+00   4.5560468e+01
 6.4221333e+00   4.6989155e+01
 6.4276000e+00   4.7499998e+01
 6.4330667e+00   4.8223009e+01
 6.4385333e+00   4.7773304e+01
 6.4440000e+00   4.7581199e+01
 6.4494667e+00   4.6100744e+01
 6.4549333e+00   4.5400206e+01
 6.4604000e+00   4.3677507e+01
 6.4658667e+00   4.2744111e+01
 6.4713333e+00   4.1379292e+01
 6.4768000e+00   4.0396645e+01
 6.4822667e+00   3.9316880e+01
 6.4877333e+00   3.8336291e+01
 6.4932000e+00   3.7374861e+01
 6.4986667e+00   3.7220200e+01
 6.5041333e+00   3.6386469e+01
 6.5096000e+00   3.6460976e+01
 6.5150667e+00   3.5966816e+01
 6.5205333e+00   3.5956055e+01
 6.5260000e+00   3.5638184e+01
 6.5314667e+00   3.5724360e+01
 6.5369333e+00   3.5545592e+01
 6.5424000e+00   3.5682705e+01
 6.5478667e+00   3.5504793e+01
 6.5533333e+00   3.5521189e+01
 6.5588000e+00   3.5465669e+01
 6.5642667e+00   3.5587103e+01
 6.5697333e+00   3.5376630e+01
 6.5752000e+00   3.5445360e+01
 6.5806667e+00   3.5330850e+01
 6.5861333e+00   3.5423839e+01
 6.5916000e+00   3.5223354e+01
 6.5970667e+00   3.5369800e+01
 6.6025333e+00   3.5303319e+01
 6.6080000e+00   3.5404416e+01
 6.6134667e+00   3.5230730e+01
 6.6189333e+00   3.5405268e+01
 6.6244000e+00   3.5187867e+01
 6.6298667e+00   3.5493696e+01
 6.6353333e+00   3.5248267e+01
 6.6408000e+00   3.5427666e+01
 6.6462667e+00   3.5288035e+01
 6.6517333e+00   3.5501330e+01
 6.6572000e+00   3.5422118e+01
 6.6626667e+00   3.5606420e+01
 6.6681333e+00   3.5240570e+01
 6.6736000e+00   3.5528427e+01
 6.6790667e+00   3.5411897e+01
 6.6845333e+00   3.5667857e+01
 6.6900000e+00   3.5533668e+01
 6.6954667e+00   3.5630644e+01
 6.7009333e+00   3.5511173e+01
 6.7064000e+00   3.5478620e+01
 6.7118667e+00   3.5607797e+01
 6.7173333e+00   3.5601500e+01
 6.7228000e+00   3.5692791e+01
 6.7282667e+00   3.5592208e+01
 6.7337333e+00   3.5717251e+01
 6.7392000e+00   3.5672061e+01
 6.7446667e+00   3.5656109e+01
 6.7501333e+00   3.5781403e+01
 6.7556000e+00   3.5672817e+01
 6.7610667e+00   3.5799318e+01
 6.7665333e+00   3.5771877e+01
 6.7720000e+00   3.5956424e+01
 6.7774667e+00   3.5742817e+01
 6.7829333e+00   3.6006010e+01
 6.7884000e+00   3.5835434e+01
 6.7938667e+00   3.6044156e+01
 6.7993333e+00   3.5964990e+01
 6.8048000e+00   3.6143445e+01
 6.8102667e+00   3.6035224e+01
 6.8157333e+00   3.6168532e+01
 6.8212000e+00   3.6142501e+01
 6.8266667e+00   3.6320645e+01
 6.8321333e+00   3.6173842e+01
 6.8376000e+00   3.6508371e+01
 6.8430667e+00   3.6153799e+01
 6.8485333e+00   3.6612472e+01
 6.8540000e+00   3.6302618e+01
 6.8594667e+00   3.6628295e+01
 6.8649333e+00   3.6409505e+01
 6.8704000e+00   3.6743475e+01
 6.8758667e+00   3.6421530e+01
 6.8813333e+00   3.6927038e+01
 6.8868000e+00   3.6533004e+01
 6.8922667e+00   3.7052639e+01
 6.8977333e+00   3.6645519e+01
 6.9032000e+00   3.7057252e+01
 6.9086667e+00   3.6900954e+01
 6.9141333e+00   3.7133161e+01
 6.9196000e+00   3.6964316e+01
 6.9250667e+00   3.7175498e+01
 6.9305333e+00   3.7158272e+01
 6.9360000e+00   3.7343151e+01
 6.9414667e+00   3.7395571e+01
 6.9469333e+00   3.7461454e+01
 6.9524000e+00   3.7555033e+01
 6.9578667e+00   3.7566924e+01
 6.9633333e+00   3.7719322e+01
 6.9688000e+00   3.7701785e+01
 6.9742667e+00   3.7924796e+01
 6.9797333e+00   3.7991218e+01
 6.9852000e+00   3.8149080e+01
 6.9906667e+00   3.8360056e+01
 6.9961333e+00   3.8315920e+01
 7.0016000e+00   3.8671035e+01
 7.0070667e+00   3.8528302e+01
 7.0125333e+00   3.8867592e+01
 7.0180000e+00   3.8838155e+01
 7.0234667e+00   3.9241218e+01
 7.0289333e+00   3.9100943e+01
 7.0344000e+00   3.9637542e+01
 7.0398667e+00   3.9426505e+01
 7.0453333e+00   3.9923524e+01
 7.0508000e+00   3.9897200e+01
 7.0562667e+00   4.0480217e+01
 7.0617333e+00   4.0739818e+01
 7.0672000e+00   4.1523871e+01
 7.0726667e+00   4.2428922e+01
 7.0781333e+00   4.3970201e+01
 7.0836000e+00   4.6628541e+01
 7.0890667e+00   5.1133365e+01
 7.0945333e+00   5.8092305e+01
 7.1000000e+00   6.7226788e+01
 7.1054667e+00   8.0196048e+01
 7.1109333e+00   9.5339436e+01
 7.1164000e+00   1.0985653e+02
 7.1218667e+00   1.2495063e+02
 7.1273333e+00   1.3457315e+02
 7.1328000e+00   1.4228534e+02
 7.1382667e+00   1.4236088e+02
 7.1437333e+00   1.3981447e+02
 7.1492000e+00   1.3140915e+02
 7.1546667e+00   1.2048546e+02
 7.1601333e+00   1.0795024e+02
 7.1656000e+00   9.4051266e+01
 7.1710667e+00   8.2000213e+01
 7.1765333e+00   6.9526417e+01
 7.1820000e+00   6.0292886e+01
 7.1874667e+00   5.3389375e+01
 7.1929333e+00   4.8720814e+01
 7.1984000e+00   4.5634871e+01
 7.2038667e+00   4.3778928e+01
 7.2093333e+00   4.2693806e+01
 7.2148000e+00   4.1980369e+01
 7.2202667e+00   4.1488275e+01
 7.2257333e+00   4.1119725e+01
 7.2312000e+00   4.0898928e+01
 7.2366667e+00   4.0705223e+01
 7.2421333e+00   4.0553648e+01
 7.2476000e+00   4.0413444e+01
 7.2530667e+00   4.0450466e+01
 7.2585333e+00   4.0107662e+01
 7.2640000e+00   4.0300375e+01
 7.2694667e+00   3.9922356e+01
 7.2749333e+00   4.0213058e+01
 7.2804000e+00   3.9801861e+01
 7.2858667e+00   4.0090943e+01
 7.2913333e+00   3.9794020e+01
 7.2968000e+00   4.0043520e+01
 7.3022667e+00   3.9870800e+01
 7.3077333e+00   3.9774739e+01
 7.3132000e+00   3.9849455e+01
 7.3186667e+00   3.9816711e+01
 7.3241333e+00   3.9903495e+01
 7.3296000e+00   3.9469859e+01
 7.3350667e+00   3.9912831e+01
 7.3405333e+00   3.9477434e+01
 7.3460000e+00   3.9751245e+01
 7.3514667e+00   3.9588586e+01
 7.3569333e+00   3.9593117e+01
 7.3624000e+00   3.9679124e+01
 7.3678667e+00   3.9675089e+01
 7.3733333e+00   3.9769227e+01
 7.3788000e+00   3.9507738e+01
 7.3842667e+00   3.9607153e+01
 7.3897333e+00   3.9656887e+01
 7.3952000e+00   3.9599041e+01
 7.4006667e+00   3.9775757e+01
 7.4061333e+00   3.9636242e+01
 7.4116000e+00   3.9651342e+01
 7.4170667e+00   3.9682266e+01
 7.4225333e+00   3.9781757e+01
 7.4280000e+00   3.9752727e+01
 7.4334667e+00   3.9733243e+01
 7.4389333e+00   3.9973162e+01
 7.4444000e+00   3.9772991e+01
 7.4498667e+00   3.9836337e+01
 7.4553333e+00   3.9861976e+01
 7.4608000e+00   3.9937391e+01
 7.4662667e+00   3.9948978e+01
 7.4717333e+00   3.9935310e+01
 7.4772000e+00   4.0004967e+01
 7.4826667e+00   3.9923759e+01
 7.4881333e+00   3.9984480e+01
 7.4936000e+00   4.0068352e+01
 7.4990667e+00   4.0123384e+01
 7.5045333e+00   4.0192889e+01
 7.5100000e+00   4.0035030e+01
 7.5154667e+00   4.0143415e+01
 7.5209333e+00   4.0099555e+01
 7.5264000e+00   4.0085450e+01
 7.5318667e+00   4.0296693e+01
 7.5373333e+00   4.0239762e+01
 7.5428000e+00   4.0406842e+01
 7.5482667e+00   4.0359432e+01
 7.5537333e+00   4.0469516e+01
 7.5592000e+00   4.0465633e+01
 7.5646667e+00   4.0535874e+01
 7.5701333e+00   4.0511762e+01
 7.5756000e+00   4.0663297e+01
 7.5810667e+00   4.0579981e+01
 7.5865333e+00   4.0708734e+01
 7.5920000e+00   4.0660857e+01
 7.5974667e+00   4.0751623e+01
 7.6029333e+00   4.0772446e+01
 7.6084000e+00   4.0836303e+01
 7.6138667e+00   4.0928125e+01
 7.6193333e+00   4.0834993e+01
 7.6248000e+00   4.1039362e+01
 7.6302667e+00   4.0874905e+01
 7.6357333e+00   4.1093022e+01
 7.6412000e+00   4.1038456e+01
 7.6466667e+00   4.1270339e+01
 7.6521333e+00   4.1240770e+01
 7.6576000e+00   4.1325205e+01
 7.6630667e+00   4.1345796e+01
 7.6685333e+00   4.1484808e+01
 7.6740000e+00   4.1546110e+01
 7.6794667e+00   4.1670736e+01
 7.6849333e+00   4.1722788e+01
 7.6904000e+00   4.1914410e+01
 7.6958667e+00   4.2002132e+01
 7.7013333e+00   4.2056314e+01
 7.7068000e+00   4.2171312e+01
 7.7122667e+00   4.2197798e+01
 7.7177333e+00   4.2427677e+01
 7.7232000e+00   4.2306983e+01
 7.7286667e+00   4.2703280e+01
 7.7341333e+00   4.2637893e+01
 7.7396000e+00   4.3001929e+01
 7.7450667e+00   4.2858151e+01
 7.7505333e+00   4.3240189e+01
 7.7560000e+00   4.3251522e+01
 7.7614667e+00   4.3608556e+01
 7.7669333e+00   4.3733683e+01
 7.7724000e+00   4.4129345e+01
 7.7778667e+00   4.4153920e+01
 7.7833333e+00   4.4858826e+01
 7.7888000e+00   4.5592579e+01
 7.7942667e+00   4.5660954e+01
 7.7997333e+00   4.7931928e+01
 7.8052000e+00   5.2445057e+01
 7.8106667e+00   4.9587197e+01
 7.8161333e+00   5.4028098e+01
 7.8216000e+00   5.9359758e+01
 7.8270667e+00   6.7203958e+01
 7.8325333e+00   7.9921701e+01
 7.8380000e+00   9.6827938e+01
 7.8434667e+00   1.1450306e+02
 7.8489333e+00   1.3320730e+02
 7.8544000e+00   1.4826913e+02
 7.8598667e+00   1.6172618e+02
 7.8653333e+00   1.6591389e+02
 7.8708000e+00   1.6778469e+02
 7.8762667e+00   1.6124928e+02
 7.8817333e+00   1.4882974e+02
 7.8872000e+00   1.3596316e+02
 7.8926667e+00   1.1666671e+02
 7.8981333e+00   1.0302859e+02
 7.9036000e+00   8.7246529e+01
 7.9090667e+00   7.6419577e+01
 7.9145333e+00   6.6983251e+01
 7.9200000e+00   6.0491137e+01
 7.9254667e+00   5.5900552e+01
 7.9309333e+00   5.2797013e+01
 7.9364000e+00   5.0933454e+01
 7.9418667e+00   4.9221646e+01
 7.9473333e+00   4.8684034e+01
 7.9528000e+00   4.7645989e+01
 7.9582667e+00   4.7473497e+01
 7.9637333e+00   4.6752857e+01
 7.9692000e+00   4.6680120e+01
 7.9746667e+00   4.6273495e+01
 7.9801333e+00   4.6321627e+01
 7.9856000e+00   4.5915744e+01
 7.9910667e+00   4.6131444e+01
 7.9965333e+00   4.5869286e+01
 8.0020000e+00   4.5936822e+01
 8.0074667e+00   4.5811775e+01
 8.0129333e+00   4.5919092e+01
 8.0184000e+00   4.6057498e+01
 8.0238667e+00   4.5953440e+01
 8.0293333e+00   4.6349369e+01
 8.0348000e+00   4.6074628e+01
 8.0402667e+00   4.6536290e+01
 8.0457333e+00   4.6156294e+01
 8.0512000e+00   4.6721579e+01
 8.0566667e+00   4.6432667e+01
 8.0621333e+00   4.7137424e+01
 8.0676000e+00   4.6738112e+01
 8.0730667e+00   4.7438731e+01
 8.0785333e+00   4.7518520e+01
 8.0840000e+00   4.8185948e+01
 8.0894667e+00   4.9293836e+01
 8.0949333e+00   5.0283611e+01
 8.1004000e+00   5.7795273e+01
 8.1058667e+00   5.4048623e+01
 8.1113333e+00   7.1206694e+01
 8.1168000e+00   7.5878885e+01
 8.1222667e+00   9.1726095e+01
 8.1277333e+00   9.3896909e+01
 8.1332000e+00   1.1296846e+02
 8.1386667e+00   1.3685805e+02
 8.1441333e+00   1.3436349e+02
 8.1496000e+00   1.1926520e+02
 8.1550667e+00   1.2614683e+02
 8.1605333e+00   9.4400136e+01
 8.1660000e+00   1.2138191e+02
 8.1714667e+00   9.8774279e+01
 8.1769333e+00   1.2788172e+02
 8.1824000e+00   9.3565059e+01
 8.1878667e+00   9.1101683e+01
 8.1933333e+00   9.3467374e+01
 8.1988000e+00   8.4747008e+01
 8.2042667e+00   1.1327919e+02
 8.2097333e+00   9.1401763e+01
 8.2152000e+00   9.4239145e+01
 8.2206667e+00   7.6918577e+01
 8.2261333e+00   6.6955023e+01
 8.2316000e+00   6.2903565e+01
 8.2370667e+00   6.1951897e+01
 8.2425333e+00   6.1459194e+01
 8.2480000e+00   6.0812888e+01
 8.2534667e+00   5.9480070e+01
 8.2589333e+00   5.8459414e+01
 8.2644000e+00   5.6493511e+01
 8.2698667e+00   5.5080875e+01
 8.2753333e+00   5.2889651e+01
 8.2808000e+00   5.2021507e+01
 8.2862667e+00   5.0359955e+01
 8.2917333e+00   4.9882789e+01
 8.2972000e+00   4.8982732e+01
 8.3026667e+00   4.8950126e+01
 8.3081333e+00   4.8444433e+01
 8.3136000e+00   4.8510760e+01
 8.3190667e+00   4.8325210e+01
 8.3245333e+00   4.8444345e+01
 8.3300000e+00   4.8420208e+01
 8.3354667e+00   4.8601474e+01
 8.3409333e+00   4.8663260e+01
 8.3464000e+00   4.8982789e+01
 8.3518667e+00   4.9416817e+01
 8.3573333e+00   4.9924203e+01
 8.3628000e+00   5.1534748e+01
 8.3682667e+00   5.2909521e+01
 8.3737333e+00   5.6965414e+01
 8.3792000e+00   6.0965370e+01
 8.3846667e+00   6.9686332e+01
 8.3901333e+00   7.8107614e+01
 8.3956000e+00   9.0640690e+01
 8.4010667e+00   1.0217067e+02
 8.4065333e+00   1.1555124e+02
 8.4120000e+00   1.2645419e+02
 8.4174667e+00   1.3440863e+02
 8.4229333e+00   1.3824306e+02
 8.4284000e+00   1.3716074e+02
 8.4338667e+00   1.3060249e+02
 8.4393333e+00   1.2077955e+02
 8.4448000e+00   1.0670966e+02
 8.4502667e+00   9.4209791e+01
 8.4557333e+00   8.1742378e+01
 8.4612000e+00   7.1532691e+01
 8.4666667e+00   6.4653644e+01
 8.4721333e+00   5.8701490e+01
 8.4776000e+00   5.6631926e+01
 8.4830667e+00   5.4741100e+01
 8.4885333e+00   5.5488057e+01
 8.4940000e+00   5.6296347e+01
 8.4994667e+00   6.0554823e+01
 8.5049333e+00   6.3921942e+01
 8.5104000e+00   7.1825538e+01
 8.5158667e+00   7.7359933e+01
 8.5213333e+00   8.6576909e+01
 8.5268000e+00   9.2833495e+01
 8.5322667e+00   9.9942653e+01
 8.5377333e+00   1.0410225e+02
 8.5432000e+00   1.0698934e+02
 8.5486667e+00   1.0594445e+02
 8.5541333e+00   1.0333472e+02
 8.5596000e+00   9.5868130e+01
 8.5650667e+00   8.8422105e+01
 8.5705333e+00   7.8549539e+01
 8.5760000e+00   6.9354743e+01
 8.5814667e+00   6.3432634e+01
 8.5869333e+00   5.6999995e+01
 8.5924000e+00   5.3752786e+01
 8.5978667e+00   5.0906604e+01
 8.6033333e+00   4.9647462e+01
 8.6088000e+00   4.8193679e+01
 8.6142667e+00   4.7990198e+01
 8.6197333e+00   4.7134923e+01
 8.6252000e+00   4.7127164e+01
 8.6306667e+00   4.6518645e+01
 8.6361333e+00   4.6664789e+01
 8.6416000e+00   4.5962971e+01
 8.6470667e+00   4.6037782e+01
 8.6525333e+00   4.5773863e+01
 8.6580000e+00   4.5624576e+01
 8.6634667e+00   4.5421139e+01
 8.6689333e+00   4.5213727e+01
 8.6744000e+00   4.5079266e+01
 8.6798667e+00   4.4844996e+01
 8.6853333e+00   4.4846236e+01
 8.6908000e+00   4.4654310e+01
 8.6962667e+00   4.4782292e+01
 8.7017333e+00   4.4384577e+01
 8.7072000e+00   4.4738296e+01
 8.7126667e+00   4.4069731e+01
 8.7181333e+00   4.4471133e+01
 8.7236000e+00   4.3844087e+01
 8.7290667e+00   4.4362419e+01
 8.7345333e+00   4.3744346e+01
 8.7400000e+00   4.4107368e+01
 8.7454667e+00   4.3590679e+01
 8.7509333e+00   4.3971085e+01
 8.7564000e+00   4.3524915e+01
 8.7618667e+00   4.3753948e+01
 8.7673333e+00   4.3321711e+01
 8.7728000e+00   4.3400404e+01
 8.7782667e+00   4.3260086e+01
 8.7837333e+00   4.3343884e+01
 8.7892000e+00   4.3220571e+01
 8.7946667e+00   4.3149047e+01
 8.8001333e+00   4.3039973e+01
 8.8056000e+00   4.2978823e+01
 8.8110667e+00   4.3047703e+01
 8.8165333e+00   4.2785409e+01
 8.8220000e+00   4.3060330e+01
 8.8274667e+00   4.2479818e+01
 8.8329333e+00   4.2986950e+01
 8.8384000e+00   4.2388969e+01
 8.8438667e+00   4.2964114e+01
 8.8493333e+00   4.2245098e+01
 8.8548000e+00   4.2833563e+01
 8.8602667e+00   4.2198385e+01
 8.8657333e+00   4.2759822e+01
 8.8712000e+00   4.2337831e+01
 8.8766667e+00   4.2845964e+01
 8.8821333e+00   4.2728828e+01
 8.8876000e+00   4.3446181e+01
 8.8930667e+00   4.3757753e+01
 8.8985333e+00   4.4980433e+01
 8.9040000e+00   4.5983717e+01
 8.9094667e+00   4.7996302e+01
 8.9149333e+00   5.0001311e+01
 8.9204000e+00   5.2253963e+01
 8.9258667e+00   5.4345314e+01
 8.9313333e+00   5.5280679e+01
 8.9368000e+00   5.6442469e+01
 8.9422667e+00   5.5841889e+01
 8.9477333e+00   5.5096270e+01
 8.9532000e+00   5.2799290e+01
 8.9586667e+00   5.0757002e+01
 8.9641333e+00   4.7886215e+01
 8.9696000e+00   4.6353840e+01
 8.9750667e+00   4.4498890e+01
 8.9805333e+00   4.3774057e+01
 8.9860000e+00   4.2475210e+01
 8.9914667e+00   4.2242051e+01
 8.9969333e+00   4.1498774e+01
 9.0024000e+00   4.1460292e+01
 9.0078667e+00   4.1038883e+01
 9.0133333e+00   4.1197423e+01
 9.0188000e+00   4.0716808e+01
 9.0242667e+00   4.1085103e+01
 9.0297333e+00   4.0696248e+01
 9.0352000e+00   4.0758411e+01
 9.0406667e+00   4.0795476e+01
 9.0461333e+00   4.0795638e+01
 9.0516000e+00   4.0921962e+01
 9.0570667e+00   4.0667255e+01
 9.0625333e+00   4.1121159e+01
 9.0680000e+00   4.0858491e+01
 9.0734667e+00   4.1606714e+01
 9.0789333e+00   4.1472779e+01
 9.0844000e+00   4.2179952e+01
 9.0898667e+00   4.2149323e+01
 9.0953333e+00   4.2831015e+01
 9.1008000e+00   4.2689743e+01
 9.1062667e+00   4.3283296e+01
 9.1117333e+00   4.2888908e+01
 9.1172000e+00   4.3161914e+01
 9.1226667e+00   4.2649696e+01
 9.1281333e+00   4.2552480e+01
 9.1336000e+00   4.1689278e+01
 9.1390667e+00   4.1570821e+01
 9.1445333e+00   4.0889406e+01
 9.1500000e+00   4.0737633e+01
 9.1554667e+00   4.0187333e+01
 9.1609333e+00   4.0133036e+01
 9.1664000e+00   3.9664205e+01
 9.1718667e+00   3.9549598e+01
 9.1773333e+00   3.9408701e+01
 9.1828000e+00   3.9375769e+01
 9.1882667e+00   3.9288083e+01
 9.1937333e+00   3.9112974e+01
 9.1992000e+00   3.9140073e+01
 9.2046667e+00   3.8811241e+01
 9.2101333e+00   3.8991050e+01
 9.2156000e+00   3.8784206e+01
 9.2210667e+00   3.8993397e+01
 9.2265333e+00   3.8676943e+01
 9.2320000e+00   3.8924045e+01
 9.2374667e+00   3.8496146e+01
 9.2429333e+00   3.8924055e+01
 9.2484000e+00   3.8398243e+01
 9.2538667e+00   3.8781279e+01
 9.2593333e+00   3.8502730e+01
 9.2648000e+00   3.8789354e+01
 9.2702667e+00   3.8386978e+01
 9.2757333e+00   3.8711027e+01
 9.2812000e+00   3.8573143e+01
 9.2866667e+00   3.8836658e+01
 9.2921333e+00   3.8534367e+01
 9.2976000e+00   3.8779867e+01
 9.3030667e+00   3.8543324e+01
 9.3085333e+00   3.8788810e+01
 9.3140000e+00   3.8691692e+01
 9.3194667e+00   3.8955489e+01
 9.3249333e+00   3.9179548e+01
 9.3304000e+00   3.9648399e+01
 9.3358667e+00   4.0396738e+01
 9.3413333e+00   4.1178867e+01
 9.3468000e+00   4.2674899e+01
 9.3522667e+00   4.3986275e+01
 9.3577333e+00   4.6115463e+01
 9.3632000e+00   4.7831741e+01
 9.3686667e+00   4.9551943e+01
 9.3741333e+00   5.0585858e+01
 9.3796000e+00   5.1261151e+01
 9.3850667e+00   5.1302031e+01
 9.3905333e+00   5.0472435e+01
 9.3960000e+00   4.8982576e+01
 9.4014667e+00   4.7185840e+01
 9.4069333e+00   4.5449599e+01
 9.4124000e+00   4.3558988e+01
 9.4178667e+00   4.2108927e+01
 9.4233333e+00   4.0888812e+01
 9.4288000e+00   4.0047523e+01
 9.4342667e+00   3.9280521e+01
 9.4397333e+00   3.9073650e+01
 9.4452000e+00   3.8704063e+01
 9.4506667e+00   3.8720089e+01
 9.4561333e+00   3.8380171e+01
 9.4616000e+00   3.8659572e+01
 9.4670667e+00   3.8571636e+01
 9.4725333e+00   3.8873351e+01
 9.4780000e+00   3.8591893e+01
 9.4834667e+00   3.8931216e+01
 9.4889333e+00   3.8765800e+01
 9.4944000e+00   3.9553997e+01
 9.4998667e+00   3.9291098e+01
 9.5053333e+00   4.1261689e+01
 9.5108000e+00   4.2192082e+01
 9.5162667e+00   4.7935057e+01
 9.5217333e+00   5.2678166e+01
 9.5272000e+00   6.3279759e+01
 9.5326667e+00   6.1196457e+01
 9.5381333e+00   7.0439114e+01
 9.5436000e+00   7.9558686e+01
 9.5490667e+00   9.7344647e+01
 9.5545333e+00   1.0825304e+02
 9.5600000e+00   1.1296007e+02
 9.5654667e+00   1.2472332e+02
 9.5709333e+00   1.1130990e+02
 9.5764000e+00   1.0862064e+02
 9.5818667e+00   1.0927680e+02
 9.5873333e+00   9.7775381e+01
 9.5928000e+00   1.0193659e+02
 9.5982667e+00   9.1308407e+01
 9.6037333e+00   8.3028662e+01
 9.6092000e+00   7.5715234e+01
 9.6146667e+00   6.3204632e+01
 9.6201333e+00   5.7688909e+01
 9.6256000e+00   4.9640835e+01
 9.6310667e+00   4.8749740e+01
 9.6365333e+00   4.2521555e+01
 9.6420000e+00   4.1138175e+01
 9.6474667e+00   3.9260688e+01
 9.6529333e+00   3.8646102e+01
 9.6584000e+00   3.8141502e+01
 9.6638667e+00   3.8095060e+01
 9.6693333e+00   3.7713261e+01
 9.6748000e+00   3.7782450e+01
 9.6802667e+00   3.7475147e+01
 9.6857333e+00   3.7642547e+01
 9.6912000e+00   3.7280430e+01
 9.6966667e+00   3.7132407e+01
 9.7021333e+00   3.7225920e+01
 9.7076000e+00   3.6795676e+01
 9.7130667e+00   3.7001691e+01
 9.7185333e+00   3.6428037e+01
 9.7240000e+00   3.6943624e+01
 9.7294667e+00   3.6219906e+01
 9.7349333e+00   3.6603011e+01
 9.7404000e+00   3.6135745e+01
 9.7458667e+00   3.6336632e+01
 9.7513333e+00   3.6170445e+01
 9.7568000e+00   3.6225562e+01
 9.7622667e+00   3.5921597e+01
 9.7677333e+00   3.6037920e+01
 9.7732000e+00   3.5952435e+01
 9.7786667e+00   3.6196619e+01
 9.7841333e+00   3.6076527e+01
 9.7896000e+00   3.6278790e+01
 9.7950667e+00   3.6528582e+01
 9.8005333e+00   3.7294361e+01
 9.8060000e+00   3.7892046e+01
 9.8114667e+00   3.9018034e+01
 9.8169333e+00   4.0445296e+01
 9.8224000e+00   4.2062014e+01
 9.8278667e+00   4.3546511e+01
 9.8333333e+00   4.5376108e+01
 9.8388000e+00   4.6265595e+01
 9.8442667e+00   4.7081363e+01
 9.8497333e+00   4.7143803e+01
 9.8552000e+00   4.6304226e+01
 9.8606667e+00   4.5111335e+01
 9.8661333e+00   4.3295620e+01
 9.8716000e+00   4.1708468e+01
 9.8770667e+00   4.0150706e+01
 9.8825333e+00   3.9203855e+01
 9.8880000e+00   3.7829552e+01
 9.8934667e+00   3.7521055e+01
 9.8989333e+00   3.6768976e+01
 9.9044000e+00   3.6431812e+01
 9.9098667e+00   3.6559358e+01
 9.9153333e+00   3.6529935e+01
 9.9208000e+00   3.6493469e+01
 9.9262667e+00   3.6588544e+01
 9.9317333e+00   3.6966144e+01
 9.9372000e+00   3.7104047e+01
 9.9426667e+00   3.7415246e+01
 9.9481333e+00   3.8156621e+01
 9.9536000e+00   4.0609709e+01
 9.9590667e+00   4.0943976e+01
 9.9645333e+00   4.3001519e+01
 9.9700000e+00   5.1977213e+01
 9.9754667e+00   4.9576213e+01
 9.9809333e+00   6.2727347e+01
 9.9864000e+00   7.0467647e+01
 9.9918667e+00   7.9753163e+01
 9.9973333e+00   7.9394253e+01
 1.0002800e+01   8.4749453e+01
 1.0008267e+01   1.0438398e+02
 1.0013733e+01   7.4039558e+01
 1.0019200e+01   1.1292652e+02
 1.0024667e+01   7.1727736e+01
 1.0030133e+01   9.8206208e+01
 1.0035600e+01   8.5303771e+01
 1.0041067e+01   7.9856389e+01
 1.0046533e+01   8.0132065e+01
 1.0052000e+01   8.9265842e+01
 1.0057467e+01   5.8389567e+01
 1.0062933e+01   6.4070817e+01
 1.0068400e+01   6.0763502e+01
 1.0073867e+01   4.0320289e+01
 1.0079333e+01   4.4419555e+01
 1.0084800e+01   3.9055663e+01
 1.0090267e+01   3.8196026e+01
 1.0095733e+01   3.6869217e+01
 1.0101200e+01   3.7303155e+01
 1.0106667e+01   3.6068982e+01
 1.0112133e+01   3.6371724e+01
 1.0117600e+01   3.5820521e+01
 1.0123067e+01   3.6100596e+01
 1.0128533e+01   3.5679388e+01
 1.0134000e+01   3.5871196e+01
 1.0139467e+01   3.5802039e+01
 1.0144933e+01   3.5912848e+01
 1.0150400e+01   3.5938490e+01
 1.0155867e+01   3.6212555e+01
 1.0161333e+01   3.6048186e+01
 1.0166800e+01   3.6731691e+01
 1.0172267e+01   3.6433176e+01
 1.0177733e+01   3.6805488e+01
 1.0183200e+01   3.6551304e+01
 1.0188667e+01   3.6807342e+01
 1.0194133e+01   3.6439228e+01
 1.0199600e+01   3.6628430e+01
 1.0205067e+01   3.6119733e+01
 1.0210533e+01   3.5951856e+01
 1.0216000e+01   3.5513791e+01
 1.0221467e+01   3.5439246e+01
 1.0226933e+01   3.4812103e+01
 1.0232400e+01   3.4659859e+01
 1.0237867e+01   3.4308440e+01
 1.0243333e+01   3.4047144e+01
 1.0248800e+01   3.3833769e+01
 1.0254267e+01   3.3789701e+01
 1.0259733e+01   3.3664313e+01
 1.0265200e+01   3.3448976e+01
 1.0270667e+01   3.3402710e+01
 1.0276133e+01   3.3265420e+01
 1.0281600e+01   3.3209531e+01
 1.0287067e+01   3.3099955e+01
 1.0292533e+01   3.3061455e+01
 1.0298000e+01   3.3192822e+01
 1.0303467e+01   3.2977442e+01
 1.0308933e+01   3.3046789e+01
 1.0314400e+01   3.2817330e+01
 1.0319867e+01   3.2984951e+01
 1.0325333e+01   3.2762356e+01
 1.0330800e+01   3.2717203e+01
 1.0336267e+01   3.2685851e+01
 1.0341733e+01   3.2620338e+01
 1.0347200e+01   3.2743370e+01
 1.0352667e+01   3.2535483e+01
 1.0358133e+01   3.2823221e+01
 1.0363600e+01   3.2514914e+01
 1.0369067e+01   3.2627925e+01
 1.0374533e+01   3.2591650e+01
 1.0380000e+01   3.2711840e+01
 1.0385467e+01   3.2631106e+01
 1.0390933e+01   3.2547000e+01
 1.0396400e+01   3.2587942e+01
 1.0401867e+01   3.2552270e+01
 1.0407333e+01   3.2581111e+01
 1.0412800e+01   3.2456183e+01
 1.0418267e+01   3.2744687e+01
 1.0423733e+01   3.2785009e+01
 1.0429200e+01   3.5276907e+01
 1.0434667e+01   3.3714486e+01
 1.0440133e+01   3.8538876e+01
 1.0445600e+01   3.4320240e+01
 1.0451067e+01   3.3108843e+01
 1.0456533e+01   3.2882523e+01
 1.0462000e+01   3.2633383e+01
 1.0467467e+01   3.2543683e+01
 1.0472933e+01   3.2424967e+01
 1.0478400e+01   3.2552014e+01
 1.0483867e+01   3.2475089e+01
 1.0489333e+01   3.2595065e+01
 1.0494800e+01   3.2812044e+01
 1.0500267e+01   3.2534293e+01
 1.0505733e+01   3.2782755e+01
 1.0511200e+01   3.2472213e+01
 1.0516667e+01   3.2599685e+01
 1.0522133e+01   3.2609065e+01
 1.0527600e+01   3.2613671e+01
 1.0533067e+01   3.2615077e+01
 1.0538533e+01   3.2651644e+01
 1.0544000e+01   3.2819400e+01
 1.0549467e+01   3.2632030e+01
 1.0554933e+01   3.2927506e+01
 1.0560400e+01   3.2929713e+01
 1.0565867e+01   3.3192618e+01
 1.0571333e+01   3.3382701e+01
 1.0576800e+01   3.3662914e+01
 1.0582267e+01   3.4397135e+01
 1.0587733e+01   3.5316412e+01
 1.0593200e+01   3.6619749e+01
 1.0598667e+01   3.8513658e+01
 1.0604133e+01   4.0835777e+01
 1.0609600e+01   4.3526667e+01
 1.0615067e+01   4.6395131e+01
 1.0620533e+01   4.8955701e+01
 1.0626000e+01   5.0865316e+01
 1.0631467e+01   5.2179640e+01
 1.0636933e+01   5.2194590e+01
 1.0642400e+01   5.3649868e+01
 1.0647867e+01   4.9887209e+01
 1.0653333e+01   5.5615692e+01
 1.0658800e+01   4.5406121e+01
 1.0664267e+01   4.4486160e+01
 1.0669733e+01   4.0037209e+01
 1.0675200e+01   3.7768907e+01
 1.0680667e+01   3.6315924e+01
 1.0686133e+01   3.5028434e+01
 1.0691600e+01   3.4330318e+01
 1.0697067e+01   3.3877037e+01
 1.0702533e+01   3.3705061e+01
 1.0708000e+01   3.3326261e+01
 1.0713467e+01   3.3808555e+01
 1.0718933e+01   3.3454453e+01
 1.0724400e+01   3.2944247e+01
 1.0729867e+01   3.3105167e+01
 1.0735333e+01   3.2899930e+01
 1.0740800e+01   3.2890759e+01
 1.0746267e+01   3.2887241e+01
 1.0751733e+01   3.2728196e+01
 1.0757200e+01   3.2769274e+01
 1.0762667e+01   3.2797820e+01
 1.0768133e+01   3.2735312e+01
 1.0773600e+01   3.2627090e+01
 1.0779067e+01   3.2668518e+01
 1.0784533e+01   3.2723761e+01
 1.0790000e+01   3.2626260e+01
 1.0795467e+01   3.2858582e+01
 1.0800933e+01   3.2508464e+01
 1.0806400e+01   3.2764151e+01
 1.0811867e+01   3.2600186e+01
 1.0817333e+01   3.2648197e+01
 1.0822800e+01   3.2631180e+01
 1.0828267e+01   3.2703697e+01
 1.0833733e+01   3.2682191e+01
 1.0839200e+01   3.2778099e+01
 1.0844667e+01   3.2833104e+01
 1.0850133e+01   3.2870657e+01
 1.0855600e+01   3.2846245e+01
 1.0861067e+01   3.2906282e+01
 1.0866533e+01   3.3413987e+01
 1.0872000e+01   3.3438746e+01
 1.0877467e+01   3.3963409e+01
 1.0882933e+01   3.4211828e+01
 1.0888400e+01   3.4911371e+01
 1.0893867e+01   3.5377272e+01
 1.0899333e+01   3.6094567e+01
 1.0904800e+01   3.6518885e+01
 1.0910267e+01   3.6821203e+01
 1.0915733e+01   3.7096839e+01
 1.0921200e+01   3.6882417e+01
 1.0926667e+01   3.6991602e+01
 1.0932133e+01   3.6449705e+01
 1.0937600e+01   3.6124880e+01
 1.0943067e+01   3.5550687e+01
 1.0948533e+01   3.4914981e+01
 1.0954000e+01   3.4554973e+01
 1.0959467e+01   3.4020837e+01
 1.0964933e+01   3.3917384e+01
 1.0970400e+01   3.3640431e+01
 1.0975867e+01   3.3500280e+01
 1.0981333e+01   3.3327930e+01
 1.0986800e+01   3.3312632e+01
 1.0992267e+01   3.3128610e+01
 1.0997733e+01   3.3394729e+01
 1.1003200e+01   3.3269579e+01
 1.1008667e+01   3.3648826e+01
 1.1014133e+01   3.3048777e+01
 1.1019600e+01   3.3514867e+01
 1.1025067e+01   3.3218086e+01
 1.1030533e+01   3.3578642e+01
 1.1036000e+01   3.3448568e+01
 1.1041467e+01   3.3581434e+01
 1.1046933e+01   3.3463282e+01
 1.1052400e+01   3.3744865e+01
 1.1057867e+01   3.3627539e+01
 1.1063333e+01   3.4020118e+01
 1.1068800e+01   3.3955244e+01
 1.1074267e+01   3.4603018e+01
 1.1079733e+01   3.4410489e+01
 1.1085200e+01   3.5266304e+01
 1.1090667e+01   3.5523009e+01
 1.1096133e+01   3.7113208e+01
 1.1101600e+01   3.8426585e+01
 1.1107067e+01   4.0674202e+01
 1.1112533e+01   4.3296481e+01
 1.1118000e+01   4.6413539e+01
 1.1123467e+01   4.9469476e+01
 1.1128933e+01   5.2541867e+01
 1.1134400e+01   5.4858238e+01
 1.1139867e+01   5.6917950e+01
 1.1145333e+01   5.6864765e+01
 1.1150800e+01   5.7098601e+01
 1.1156267e+01   5.4990949e+01
 1.1161733e+01   5.3135196e+01
 1.1167200e+01   4.9703400e+01
 1.1172667e+01   4.6956870e+01
 1.1178133e+01   4.3751513e+01
 1.1183600e+01   4.1218020e+01
 1.1189067e+01   3.8854161e+01
 1.1194533e+01   3.7341230e+01
