PWDR ff_004455_sum_norm_dc_0.tif Azm= 352.fxye Bank 1
2-Theta Angle (Degrees)
Intensity
       1500
 3.0000000e+00   4.7038378e+01
 3.0054667e+00   4.6601674e+01
 3.0109333e+00   4.6533711e+01
 3.0164000e+00   4.6494208e+01
 3.0218667e+00   4.5943871e+01
 3.0273333e+00   4.6127035e+01
 3.0328000e+00   4.5444403e+01
 3.0382667e+00   4.5467288e+01
 3.0437333e+00   4.4941686e+01
 3.0492000e+00   4.4867571e+01
 3.0546667e+00   4.4704034e+01
 3.0601333e+00   4.4184362e+01
 3.0656000e+00   4.4331308e+01
 3.0710667e+00   4.3896456e+01
 3.0765333e+00   4.3970260e+01
 3.0820000e+00   4.3676262e+01
 3.0874667e+00   4.3651146e+01
 3.0929333e+00   4.3315415e+01
 3.0984000e+00   4.3337848e+01
 3.1038667e+00   4.3095171e+01
 3.1093333e+00   4.2964855e+01
 3.1148000e+00   4.2740097e+01
 3.1202667e+00   4.3006048e+01
 3.1257333e+00   4.2586440e+01
 3.1312000e+00   4.2553942e+01
 3.1366667e+00   4.2380701e+01
 3.1421333e+00   4.2533667e+01
 3.1476000e+00   4.2324459e+01
 3.1530667e+00   4.2198160e+01
 3.1585333e+00   4.2036417e+01
 3.1640000e+00   4.1815389e+01
 3.1694667e+00   4.1809250e+01
 3.1749333e+00   4.1611312e+01
 3.1804000e+00   4.1763350e+01
 3.1858667e+00   4.1207753e+01
 3.1913333e+00   4.1588424e+01
 3.1968000e+00   4.0938000e+01
 3.2022667e+00   4.1323101e+01
 3.2077333e+00   4.0730133e+01
 3.2132000e+00   4.0829111e+01
 3.2186667e+00   4.0566476e+01
 3.2241333e+00   4.0556865e+01
 3.2296000e+00   4.0213010e+01
 3.2350667e+00   4.0199972e+01
 3.2405333e+00   4.0180221e+01
 3.2460000e+00   4.0007354e+01
 3.2514667e+00   3.9884940e+01
 3.2569333e+00   3.9907532e+01
 3.2624000e+00   3.9921211e+01
 3.2678667e+00   3.9596206e+01
 3.2733333e+00   3.9886016e+01
 3.2788000e+00   3.9539523e+01
 3.2842667e+00   3.9539571e+01
 3.2897333e+00   3.9729599e+01
 3.2952000e+00   3.9851028e+01
 3.3006667e+00   3.9497492e+01
 3.3061333e+00   3.9605442e+01
 3.3116000e+00   3.9624313e+01
 3.3170667e+00   3.9526860e+01
 3.3225333e+00   3.9605113e+01
 3.3280000e+00   3.9216782e+01
 3.3334667e+00   3.9111401e+01
 3.3389333e+00   3.8864825e+01
 3.3444000e+00   3.8854501e+01
 3.3498667e+00   3.8791989e+01
 3.3553333e+00   3.8913840e+01
 3.3608000e+00   3.8750125e+01
 3.3662667e+00   3.8769801e+01
 3.3717333e+00   3.8999751e+01
 3.3772000e+00   3.8639544e+01
 3.3826667e+00   4.0666756e+01
 3.3881333e+00   3.8544480e+01
 3.3936000e+00   3.8269952e+01
 3.3990667e+00   3.8827690e+01
 3.4045333e+00   3.8198394e+01
 3.4100000e+00   3.8451625e+01
 3.4154667e+00   3.8384293e+01
 3.4209333e+00   3.8118038e+01
 3.4264000e+00   3.8114228e+01
 3.4318667e+00   3.8262620e+01
 3.4373333e+00   3.8236682e+01
 3.4428000e+00   3.8408289e+01
 3.4482667e+00   3.8454888e+01
 3.4537333e+00   3.8234277e+01
 3.4592000e+00   3.8480132e+01
 3.4646667e+00   3.8115056e+01
 3.4701333e+00   3.8292750e+01
 3.4756000e+00   3.8353624e+01
 3.4810667e+00   3.8229894e+01
 3.4865333e+00   3.8227410e+01
 3.4920000e+00   3.8169479e+01
 3.4974667e+00   3.8167002e+01
 3.5029333e+00   3.7863121e+01
 3.5084000e+00   3.8192247e+01
 3.5138667e+00   3.7894575e+01
 3.5193333e+00   3.8020563e+01
 3.5248000e+00   3.7851789e+01
 3.5302667e+00   3.7895263e+01
 3.5357333e+00   3.7725773e+01
 3.5412000e+00   3.7901927e+01
 3.5466667e+00   3.7630278e+01
 3.5521333e+00   3.8052833e+01
 3.5576000e+00   3.7876460e+01
 3.5630667e+00   3.8108461e+01
 3.5685333e+00   3.8117077e+01
 3.5740000e+00   3.8224293e+01
 3.5794667e+00   3.8089406e+01
 3.5849333e+00   3.8330407e+01
 3.5904000e+00   3.8305902e+01
 3.5958667e+00   3.8252253e+01
 3.6013333e+00   3.8346009e+01
 3.6068000e+00   3.8160272e+01
 3.6122667e+00   3.8623909e+01
 3.6177333e+00   3.8286010e+01
 3.6232000e+00   3.8659330e+01
 3.6286667e+00   3.8465034e+01
 3.6341333e+00   3.8572205e+01
 3.6396000e+00   3.8534058e+01
 3.6450667e+00   3.8768846e+01
 3.6505333e+00   3.8646156e+01
 3.6560000e+00   3.8667713e+01
 3.6614667e+00   3.8874927e+01
 3.6669333e+00   3.8410376e+01
 3.6724000e+00   3.8942181e+01
 3.6778667e+00   3.8774983e+01
 3.6833333e+00   3.9005749e+01
 3.6888000e+00   3.8742778e+01
 3.6942667e+00   3.9045586e+01
 3.6997333e+00   3.8926237e+01
 3.7052000e+00   3.8985109e+01
 3.7106667e+00   3.9126849e+01
 3.7161333e+00   3.9170317e+01
 3.7216000e+00   3.9373127e+01
 3.7270667e+00   3.9472494e+01
 3.7325333e+00   3.9491790e+01
 3.7380000e+00   3.9574467e+01
 3.7434667e+00   3.9638381e+01
 3.7489333e+00   3.9693275e+01
 3.7544000e+00   3.9873957e+01
 3.7598667e+00   3.9641496e+01
 3.7653333e+00   4.0027366e+01
 3.7708000e+00   3.9870770e+01
 3.7762667e+00   4.0189468e+01
 3.7817333e+00   4.0199125e+01
 3.7872000e+00   4.0318463e+01
 3.7926667e+00   4.0208863e+01
 3.7981333e+00   4.0430544e+01
 3.8036000e+00   4.0170177e+01
 3.8090667e+00   4.0391774e+01
 3.8145333e+00   4.0206614e+01
 3.8200000e+00   4.0377686e+01
 3.8254667e+00   4.0284526e+01
 3.8309333e+00   4.0366017e+01
 3.8364000e+00   4.0692249e+01
 3.8418667e+00   4.0726067e+01
 3.8473333e+00   4.0758672e+01
 3.8528000e+00   4.0900102e+01
 3.8582667e+00   4.1052902e+01
 3.8637333e+00   4.0974360e+01
 3.8692000e+00   4.1272928e+01
 3.8746667e+00   4.1146930e+01
 3.8801333e+00   4.1539585e+01
 3.8856000e+00   4.1543284e+01
 3.8910667e+00   4.1849603e+01
 3.8965333e+00   4.1904249e+01
 3.9020000e+00   4.2329301e+01
 3.9074667e+00   4.2346671e+01
 3.9129333e+00   4.2042631e+01
 3.9184000e+00   4.2315403e+01
 3.9238667e+00   4.1937110e+01
 3.9293333e+00   4.2309585e+01
 3.9348000e+00   4.2103695e+01
 3.9402667e+00   4.2614140e+01
 3.9457333e+00   4.2192030e+01
 3.9512000e+00   4.2506003e+01
 3.9566667e+00   4.2618958e+01
 3.9621333e+00   4.2734493e+01
 3.9676000e+00   4.2497583e+01
 3.9730667e+00   4.2739689e+01
 3.9785333e+00   4.2684616e+01
 3.9840000e+00   4.2477408e+01
 3.9894667e+00   4.2851207e+01
 3.9949333e+00   4.2879219e+01
 4.0004000e+00   4.2979809e+01
 4.0058667e+00   4.3398486e+01
 4.0113333e+00   4.3371096e+01
 4.0168000e+00   4.3617206e+01
 4.0222667e+00   4.3686199e+01
 4.0277333e+00   4.3679385e+01
 4.0332000e+00   4.4253116e+01
 4.0386667e+00   4.3884353e+01
 4.0441333e+00   4.5433338e+01
 4.0496000e+00   4.4350425e+01
 4.0550667e+00   4.4837848e+01
 4.0605333e+00   4.4822635e+01
 4.0660000e+00   4.5422184e+01
 4.0714667e+00   4.5917664e+01
 4.0769333e+00   4.6771820e+01
 4.0824000e+00   4.5971844e+01
 4.0878667e+00   4.6543607e+01
 4.0933333e+00   4.6449201e+01
 4.0988000e+00   4.6555430e+01
 4.1042667e+00   4.6884466e+01
 4.1097333e+00   4.6943725e+01
 4.1152000e+00   4.7467181e+01
 4.1206667e+00   4.7128572e+01
 4.1261333e+00   4.7777653e+01
 4.1316000e+00   4.7325635e+01
 4.1370667e+00   4.8956427e+01
 4.1425333e+00   4.6895755e+01
 4.1480000e+00   4.7171504e+01
 4.1534667e+00   4.6943063e+01
 4.1589333e+00   4.7140344e+01
 4.1644000e+00   4.7039421e+01
 4.1698667e+00   4.7315822e+01
 4.1753333e+00   4.7276505e+01
 4.1808000e+00   4.7460827e+01
 4.1862667e+00   4.7559541e+01
 4.1917333e+00   4.7394833e+01
 4.1972000e+00   4.7599768e+01
 4.2026667e+00   4.7573912e+01
 4.2081333e+00   4.7462265e+01
 4.2136000e+00   4.8094739e+01
 4.2190667e+00   4.8005168e+01
 4.2245333e+00   4.8099083e+01
 4.2300000e+00   4.8490730e+01
 4.2354667e+00   4.8292514e+01
 4.2409333e+00   4.8512513e+01
 4.2464000e+00   4.8684408e+01
 4.2518667e+00   4.8589161e+01
 4.2573333e+00   4.8979913e+01
 4.2628000e+00   4.9309465e+01
 4.2682667e+00   4.9205520e+01
 4.2737333e+00   5.0013472e+01
 4.2792000e+00   4.9622220e+01
 4.2846667e+00   4.9854312e+01
 4.2901333e+00   5.0138167e+01
 4.2956000e+00   4.9793290e+01
 4.3010667e+00   5.0434255e+01
 4.3065333e+00   5.0397136e+01
 4.3120000e+00   5.0776761e+01
 4.3174667e+00   5.0776802e+01
 4.3229333e+00   5.1513504e+01
 4.3284000e+00   5.1246874e+01
 4.3338667e+00   5.1829173e+01
 4.3393333e+00   5.2010712e+01
 4.3448000e+00   5.2243697e+01
 4.3502667e+00   5.2548791e+01
 4.3557333e+00   5.2971192e+01
 4.3612000e+00   5.3267414e+01
 4.3666667e+00   5.3439065e+01
 4.3721333e+00   5.3933886e+01
 4.3776000e+00   5.3914028e+01
 4.3830667e+00   5.4859410e+01
 4.3885333e+00   5.4723356e+01
 4.3940000e+00   5.6100606e+01
 4.3994667e+00   5.5987334e+01
 4.4049333e+00   5.6831598e+01
 4.4104000e+00   5.7414815e+01
 4.4158667e+00   5.7987124e+01
 4.4213333e+00   5.8746187e+01
 4.4268000e+00   5.9206997e+01
 4.4322667e+00   5.9643760e+01
 4.4377333e+00   6.0361516e+01
 4.4432000e+00   6.0939950e+01
 4.4486667e+00   6.1922438e+01
 4.4541333e+00   6.2803171e+01
 4.4596000e+00   6.4205262e+01
 4.4650667e+00   6.6858747e+01
 4.4705333e+00   6.9122431e+01
 4.4760000e+00   7.3955950e+01
 4.4814667e+00   8.1755643e+01
 4.4869333e+00   9.0136179e+01
 4.4924000e+00   1.0803117e+02
 4.4978667e+00   1.4714076e+02
 4.5033333e+00   1.8603250e+02
 4.5088000e+00   2.2331392e+02
 4.5142667e+00   2.6335685e+02
 4.5197333e+00   2.3618663e+02
 4.5252000e+00   1.9773813e+02
 4.5306667e+00   1.9673203e+02
 4.5361333e+00   1.5708852e+02
 4.5416000e+00   1.3293861e+02
 4.5470667e+00   1.1391400e+02
 4.5525333e+00   1.2586282e+02
 4.5580000e+00   8.5974425e+01
 4.5634667e+00   8.5873923e+01
 4.5689333e+00   7.1253723e+01
 4.5744000e+00   6.7912132e+01
 4.5798667e+00   6.5190172e+01
 4.5853333e+00   6.3826817e+01
 4.5908000e+00   6.3129706e+01
 4.5962667e+00   6.2276483e+01
 4.6017333e+00   6.1768384e+01
 4.6072000e+00   6.1681759e+01
 4.6126667e+00   6.1180096e+01
 4.6181333e+00   6.1609548e+01
 4.6236000e+00   6.1838775e+01
 4.6290667e+00   6.2036757e+01
 4.6345333e+00   6.2727385e+01
 4.6400000e+00   6.3384004e+01
 4.6454667e+00   6.4120181e+01
 4.6509333e+00   6.4638656e+01
 4.6564000e+00   6.4931993e+01
 4.6618667e+00   6.4876443e+01
 4.6673333e+00   6.4007609e+01
 4.6728000e+00   6.3804008e+01
 4.6782667e+00   6.3156748e+01
 4.6837333e+00   6.2596374e+01
 4.6892000e+00   6.2244536e+01
 4.6946667e+00   6.1555294e+01
 4.7001333e+00   6.1213392e+01
 4.7056000e+00   6.0853831e+01
 4.7110667e+00   6.0736226e+01
 4.7165333e+00   6.0594257e+01
 4.7220000e+00   6.0581932e+01
 4.7274667e+00   6.0494303e+01
 4.7329333e+00   6.0462487e+01
 4.7384000e+00   5.9846507e+01
 4.7438667e+00   6.0079735e+01
 4.7493333e+00   5.9992342e+01
 4.7548000e+00   6.0143803e+01
 4.7602667e+00   5.9306781e+01
 4.7657333e+00   6.3376432e+01
 4.7712000e+00   6.2629773e+01
 4.7766667e+00   6.2561932e+01
 4.7821333e+00   6.2414952e+01
 4.7876000e+00   5.9827506e+01
 4.7930667e+00   5.9368101e+01
 4.7985333e+00   5.9902731e+01
 4.8040000e+00   5.9692866e+01
 4.8094667e+00   5.9757948e+01
 4.8149333e+00   6.0290641e+01
 4.8204000e+00   6.0355142e+01
 4.8258667e+00   6.0714446e+01
 4.8313333e+00   6.0849983e+01
 4.8368000e+00   6.1640551e+01
 4.8422667e+00   6.1168754e+01
 4.8477333e+00   6.2484695e+01
 4.8532000e+00   6.2013712e+01
 4.8586667e+00   6.3257146e+01
 4.8641333e+00   6.3018357e+01
 4.8696000e+00   6.4977070e+01
 4.8750667e+00   6.3651768e+01
 4.8805333e+00   6.6148911e+01
 4.8860000e+00   6.5301629e+01
 4.8914667e+00   6.8185717e+01
 4.8969333e+00   6.8828947e+01
 4.9024000e+00   7.2883084e+01
 4.9078667e+00   7.5521139e+01
 4.9133333e+00   8.3773123e+01
 4.9188000e+00   9.5464132e+01
 4.9242667e+00   1.1821935e+02
 4.9297333e+00   1.4577345e+02
 4.9352000e+00   1.5961279e+02
 4.9406667e+00   2.9904246e+02
 4.9461333e+00   2.1703394e+02
 4.9516000e+00   4.5063366e+02
 4.9570667e+00   3.2377666e+02
 4.9625333e+00   5.2095267e+02
 4.9680000e+00   4.2717947e+02
 4.9734667e+00   4.4308065e+02
 4.9789333e+00   4.8088555e+02
 4.9844000e+00   4.0862911e+02
 4.9898667e+00   4.8433002e+02
 4.9953333e+00   3.6717438e+02
 5.0008000e+00   2.8656650e+02
 5.0062667e+00   2.4002763e+02
 5.0117333e+00   1.7436825e+02
 5.0172000e+00   1.5571344e+02
 5.0226667e+00   1.1114112e+02
 5.0281333e+00   9.5722203e+01
 5.0336000e+00   8.3831246e+01
 5.0390667e+00   7.5051891e+01
 5.0445333e+00   7.3064618e+01
 5.0500000e+00   6.9766530e+01
 5.0554667e+00   6.8533113e+01
 5.0609333e+00   6.7219708e+01
 5.0664000e+00   6.5952612e+01
 5.0718667e+00   6.5461569e+01
 5.0773333e+00   6.4250976e+01
 5.0828000e+00   6.3602146e+01
 5.0882667e+00   6.2616318e+01
 5.0937333e+00   6.2457451e+01
 5.0992000e+00   6.0936105e+01
 5.1046667e+00   6.0829031e+01
 5.1101333e+00   6.0168597e+01
 5.1156000e+00   5.9482778e+01
 5.1210667e+00   5.8818451e+01
 5.1265333e+00   5.8728902e+01
 5.1320000e+00   5.7701035e+01
 5.1374667e+00   5.7958275e+01
 5.1429333e+00   5.6993400e+01
 5.1484000e+00   5.6927129e+01
 5.1538667e+00   5.6572065e+01
 5.1593333e+00   5.5943559e+01
 5.1648000e+00   5.6439173e+01
 5.1702667e+00   5.5237606e+01
 5.1757333e+00   5.5367128e+01
 5.1812000e+00   5.4516720e+01
 5.1866667e+00   5.4857495e+01
 5.1921333e+00   5.4090972e+01
 5.1976000e+00   5.4230808e+01
 5.2030667e+00   5.3679236e+01
 5.2085333e+00   5.3768503e+01
 5.2140000e+00   5.3155576e+01
 5.2194667e+00   5.3390845e+01
 5.2249333e+00   5.2757623e+01
 5.2304000e+00   5.2949275e+01
 5.2358667e+00   5.2339049e+01
 5.2413333e+00   5.2422484e+01
 5.2468000e+00   5.2088239e+01
 5.2522667e+00   5.1738041e+01
 5.2577333e+00   5.1754595e+01
 5.2632000e+00   5.1466038e+01
 5.2686667e+00   5.1405248e+01
 5.2741333e+00   5.1305515e+01
 5.2796000e+00   5.1077781e+01
 5.2850667e+00   5.0781542e+01
 5.2905333e+00   5.1068361e+01
 5.2960000e+00   5.0435762e+01
 5.3014667e+00   5.0492049e+01
 5.3069333e+00   5.0346829e+01
 5.3124000e+00   5.0241718e+01
 5.3178667e+00   4.9924403e+01
 5.3233333e+00   4.9953577e+01
 5.3288000e+00   4.9629188e+01
 5.3342667e+00   4.9780382e+01
 5.3397333e+00   4.9588590e+01
 5.3452000e+00   4.9486361e+01
 5.3506667e+00   4.9785470e+01
 5.3561333e+00   4.9278577e+01
 5.3616000e+00   4.9924671e+01
 5.3670667e+00   4.9460165e+01
 5.3725333e+00   5.4166196e+01
 5.3780000e+00   4.9384153e+01
 5.3834667e+00   5.0146016e+01
 5.3889333e+00   4.8790972e+01
 5.3944000e+00   4.8610405e+01
 5.3998667e+00   4.8299658e+01
 5.4053333e+00   4.8125660e+01
 5.4108000e+00   4.7903078e+01
 5.4162667e+00   4.8008922e+01
 5.4217333e+00   4.7851575e+01
 5.4272000e+00   4.7750313e+01
 5.4326667e+00   4.7807993e+01
 5.4381333e+00   4.7588489e+01
 5.4436000e+00   4.7498029e+01
 5.4490667e+00   4.7410953e+01
 5.4545333e+00   4.7531956e+01
 5.4600000e+00   4.7310735e+01
 5.4654667e+00   4.7432051e+01
 5.4709333e+00   4.7255359e+01
 5.4764000e+00   4.7057321e+01
 5.4818667e+00   4.7326924e+01
 5.4873333e+00   4.6971423e+01
 5.4928000e+00   4.6981644e+01
 5.4982667e+00   4.7020304e+01
 5.5037333e+00   4.7052783e+01
 5.5092000e+00   4.6912546e+01
 5.5146667e+00   4.7094872e+01
 5.5201333e+00   4.6809256e+01
 5.5256000e+00   4.6875948e+01
 5.5310667e+00   4.6501061e+01
 5.5365333e+00   4.6907734e+01
 5.5420000e+00   4.6582459e+01
 5.5474667e+00   4.6790904e+01
 5.5529333e+00   4.6714516e+01
 5.5584000e+00   4.6711322e+01
 5.5638667e+00   4.6952959e+01
 5.5693333e+00   4.7202503e+01
 5.5748000e+00   4.8378199e+01
 5.5802667e+00   4.6855639e+01
 5.5857333e+00   4.7490540e+01
 5.5912000e+00   4.6770513e+01
 5.5966667e+00   4.7026634e+01
 5.6021333e+00   4.6911513e+01
 5.6076000e+00   4.7125829e+01
 5.6130667e+00   4.7013848e+01
 5.6185333e+00   4.7411322e+01
 5.6240000e+00   4.7135700e+01
 5.6294667e+00   4.7676846e+01
 5.6349333e+00   4.7223417e+01
 5.6404000e+00   4.7702310e+01
 5.6458667e+00   4.7606242e+01
 5.6513333e+00   4.8018369e+01
 5.6568000e+00   4.8187823e+01
 5.6622667e+00   4.8784602e+01
 5.6677333e+00   5.0728156e+01
 5.6732000e+00   5.1207155e+01
 5.6786667e+00   6.2504888e+01
 5.6841333e+00   7.0043499e+01
 5.6896000e+00   7.0462099e+01
 5.6950667e+00   8.0855742e+01
 5.7005333e+00   1.1963030e+02
 5.7060000e+00   1.1114212e+02
 5.7114667e+00   1.4182568e+02
 5.7169333e+00   1.4426856e+02
 5.7224000e+00   1.6080086e+02
 5.7278667e+00   1.4934913e+02
 5.7333333e+00   1.9413558e+02
 5.7388000e+00   1.5552374e+02
 5.7442667e+00   2.0464668e+02
 5.7497333e+00   1.7296223e+02
 5.7552000e+00   1.6526301e+02
 5.7606667e+00   1.7466514e+02
 5.7661333e+00   1.6148044e+02
 5.7716000e+00   1.2929101e+02
 5.7770667e+00   1.4050465e+02
 5.7825333e+00   9.0366677e+01
 5.7880000e+00   1.0009134e+02
 5.7934667e+00   7.0149346e+01
 5.7989333e+00   6.4242038e+01
 5.8044000e+00   5.4224677e+01
 5.8098667e+00   5.2488449e+01
 5.8153333e+00   4.8639451e+01
 5.8208000e+00   4.8553609e+01
 5.8262667e+00   4.7028334e+01
 5.8317333e+00   4.7102443e+01
 5.8372000e+00   4.6270986e+01
 5.8426667e+00   4.6448244e+01
 5.8481333e+00   4.5509486e+01
 5.8536000e+00   4.5981727e+01
 5.8590667e+00   4.5061696e+01
 5.8645333e+00   4.5322250e+01
 5.8700000e+00   4.4692620e+01
 5.8754667e+00   4.4805686e+01
 5.8809333e+00   4.4166402e+01
 5.8864000e+00   4.4397775e+01
 5.8918667e+00   4.3935566e+01
 5.8973333e+00   4.3952906e+01
 5.9028000e+00   4.3939305e+01
 5.9082667e+00   4.3570168e+01
 5.9137333e+00   4.3397936e+01
 5.9192000e+00   4.3068396e+01
 5.9246667e+00   4.2859064e+01
 5.9301333e+00   4.2725031e+01
 5.9356000e+00   4.2559037e+01
 5.9410667e+00   4.2591064e+01
 5.9465333e+00   4.2578463e+01
 5.9520000e+00   4.2228229e+01
 5.9574667e+00   4.2424665e+01
 5.9629333e+00   4.2280640e+01
 5.9684000e+00   4.1988207e+01
 5.9738667e+00   4.2246958e+01
 5.9793333e+00   4.2182451e+01
 5.9848000e+00   4.1987975e+01
 5.9902667e+00   4.2269073e+01
 5.9957333e+00   4.2094155e+01
 6.0012000e+00   4.2232006e+01
 6.0066667e+00   4.2202555e+01
 6.0121333e+00   4.2127964e+01
 6.0176000e+00   4.2055399e+01
 6.0230667e+00   4.2303175e+01
 6.0285333e+00   4.1828278e+01
 6.0340000e+00   4.1930682e+01
 6.0394667e+00   4.1639810e+01
 6.0449333e+00   4.1788092e+01
 6.0504000e+00   4.1734676e+01
 6.0558667e+00   4.1731519e+01
 6.0613333e+00   4.1750433e+01
 6.0668000e+00   4.1588605e+01
 6.0722667e+00   4.1567127e+01
 6.0777333e+00   4.1346572e+01
 6.0832000e+00   4.1496312e+01
 6.0886667e+00   4.1212408e+01
 6.0941333e+00   4.1205985e+01
 6.0996000e+00   4.1272575e+01
 6.1050667e+00   4.1134994e+01
 6.1105333e+00   4.1117015e+01
 6.1160000e+00   4.1070976e+01
 6.1214667e+00   4.1035160e+01
 6.1269333e+00   4.1138076e+01
 6.1324000e+00   4.0704135e+01
 6.1378667e+00   4.0876936e+01
 6.1433333e+00   4.0842635e+01
 6.1488000e+00   4.0615213e+01
 6.1542667e+00   4.0706074e+01
 6.1597333e+00   4.0327799e+01
 6.1652000e+00   4.0573076e+01
 6.1706667e+00   4.0179811e+01
 6.1761333e+00   4.0375789e+01
 6.1816000e+00   4.0121871e+01
 6.1870667e+00   4.0231118e+01
 6.1925333e+00   4.0053615e+01
 6.1980000e+00   4.0102661e+01
 6.2034667e+00   4.0137511e+01
 6.2089333e+00   4.0356032e+01
 6.2144000e+00   3.9941255e+01
 6.2198667e+00   4.0433911e+01
 6.2253333e+00   4.0166579e+01
 6.2308000e+00   4.0243141e+01
 6.2362667e+00   4.0022419e+01
 6.2417333e+00   4.0339010e+01
 6.2472000e+00   4.0227551e+01
 6.2526667e+00   4.0448210e+01
 6.2581333e+00   4.0054015e+01
 6.2636000e+00   4.0792453e+01
 6.2690667e+00   4.0307501e+01
 6.2745333e+00   4.0502437e+01
 6.2800000e+00   4.0489059e+01
 6.2854667e+00   4.0430306e+01
 6.2909333e+00   4.0480231e+01
 6.2964000e+00   4.0393621e+01
 6.3018667e+00   4.0472697e+01
 6.3073333e+00   4.0361955e+01
 6.3128000e+00   4.0725776e+01
 6.3182667e+00   4.0563540e+01
 6.3237333e+00   4.0683702e+01
 6.3292000e+00   4.0743170e+01
 6.3346667e+00   4.1247112e+01
 6.3401333e+00   4.1266050e+01
 6.3456000e+00   4.2154935e+01
 6.3510667e+00   4.3102951e+01
 6.3565333e+00   4.5112209e+01
 6.3620000e+00   5.0152393e+01
 6.3674667e+00   5.3118107e+01
 6.3729333e+00   6.3336701e+01
 6.3784000e+00   5.2814622e+01
 6.3838667e+00   7.0798532e+01
 6.3893333e+00   5.6280001e+01
 6.3948000e+00   5.9029839e+01
 6.4002667e+00   5.4655789e+01
 6.4057333e+00   5.3355523e+01
 6.4112000e+00   5.1829449e+01
 6.4166667e+00   6.0385890e+01
 6.4221333e+00   5.1138570e+01
 6.4276000e+00   4.8999113e+01
 6.4330667e+00   4.5837489e+01
 6.4385333e+00   4.2708358e+01
 6.4440000e+00   4.1886589e+01
 6.4494667e+00   4.1091953e+01
 6.4549333e+00   4.0896856e+01
 6.4604000e+00   4.0664955e+01
 6.4658667e+00   4.0377044e+01
 6.4713333e+00   4.0356801e+01
 6.4768000e+00   4.0156408e+01
 6.4822667e+00   4.0369494e+01
 6.4877333e+00   3.9844146e+01
 6.4932000e+00   4.0369021e+01
 6.4986667e+00   3.9889375e+01
 6.5041333e+00   3.9943692e+01
 6.5096000e+00   3.9855237e+01
 6.5150667e+00   3.9866925e+01
 6.5205333e+00   3.9630461e+01
 6.5260000e+00   3.9891673e+01
 6.5314667e+00   3.9338296e+01
 6.5369333e+00   3.9866667e+01
 6.5424000e+00   3.9494373e+01
 6.5478667e+00   3.9482532e+01
 6.5533333e+00   3.9801390e+01
 6.5588000e+00   3.9399689e+01
 6.5642667e+00   3.9798909e+01
 6.5697333e+00   3.9320410e+01
 6.5752000e+00   3.9684646e+01
 6.5806667e+00   3.9508655e+01
 6.5861333e+00   3.9326120e+01
 6.5916000e+00   3.9479485e+01
 6.5970667e+00   3.9334385e+01
 6.6025333e+00   3.9412312e+01
 6.6080000e+00   3.9363399e+01
 6.6134667e+00   3.9382421e+01
 6.6189333e+00   3.9458911e+01
 6.6244000e+00   3.9145687e+01
 6.6298667e+00   3.9265362e+01
 6.6353333e+00   3.9592857e+01
 6.6408000e+00   3.9123399e+01
 6.6462667e+00   3.9727765e+01
 6.6517333e+00   3.9415750e+01
 6.6572000e+00   3.9424204e+01
 6.6626667e+00   3.9351426e+01
 6.6681333e+00   3.9418567e+01
 6.6736000e+00   3.9350988e+01
 6.6790667e+00   3.9306736e+01
 6.6845333e+00   3.9191384e+01
 6.6900000e+00   3.9395618e+01
 6.6954667e+00   3.9211907e+01
 6.7009333e+00   3.9471131e+01
 6.7064000e+00   3.9354387e+01
 6.7118667e+00   3.9458570e+01
 6.7173333e+00   3.9563745e+01
 6.7228000e+00   3.9382765e+01
 6.7282667e+00   3.9686565e+01
 6.7337333e+00   3.9379653e+01
 6.7392000e+00   3.9765846e+01
 6.7446667e+00   3.9296504e+01
 6.7501333e+00   3.9641918e+01
 6.7556000e+00   3.9438581e+01
 6.7610667e+00   3.9627288e+01
 6.7665333e+00   3.9409162e+01
 6.7720000e+00   3.9675508e+01
 6.7774667e+00   3.9629277e+01
 6.7829333e+00   3.9653111e+01
 6.7884000e+00   3.9886663e+01
 6.7938667e+00   3.9636877e+01
 6.7993333e+00   3.9752258e+01
 6.8048000e+00   3.9807521e+01
 6.8102667e+00   3.9803479e+01
 6.8157333e+00   3.9734206e+01
 6.8212000e+00   4.0008696e+01
 6.8266667e+00   3.9666808e+01
 6.8321333e+00   4.0166409e+01
 6.8376000e+00   3.9805879e+01
 6.8430667e+00   4.0088544e+01
 6.8485333e+00   3.9846067e+01
 6.8540000e+00   4.0269358e+01
 6.8594667e+00   3.9784685e+01
 6.8649333e+00   4.0435708e+01
 6.8704000e+00   3.9807886e+01
 6.8758667e+00   4.0310890e+01
 6.8813333e+00   4.0005032e+01
 6.8868000e+00   4.0153300e+01
 6.8922667e+00   4.0122969e+01
 6.8977333e+00   4.0229076e+01
 6.9032000e+00   4.0103081e+01
 6.9086667e+00   4.0424006e+01
 6.9141333e+00   4.0167034e+01
 6.9196000e+00   4.0360177e+01
 6.9250667e+00   4.0584920e+01
 6.9305333e+00   4.0231971e+01
 6.9360000e+00   4.0881815e+01
 6.9414667e+00   4.0483768e+01
 6.9469333e+00   4.0997950e+01
 6.9524000e+00   4.0466503e+01
 6.9578667e+00   4.1085317e+01
 6.9633333e+00   4.0624320e+01
 6.9688000e+00   4.1093351e+01
 6.9742667e+00   4.0710065e+01
 6.9797333e+00   4.1227004e+01
 6.9852000e+00   4.0762433e+01
 6.9906667e+00   4.1412958e+01
 6.9961333e+00   4.0926642e+01
 7.0016000e+00   4.1464149e+01
 7.0070667e+00   4.1209700e+01
 7.0125333e+00   4.1532882e+01
 7.0180000e+00   4.1332461e+01
 7.0234667e+00   4.1289845e+01
 7.0289333e+00   4.1433428e+01
 7.0344000e+00   4.1365614e+01
 7.0398667e+00   4.1446555e+01
 7.0453333e+00   4.1391926e+01
 7.0508000e+00   4.1759258e+01
 7.0562667e+00   4.1440992e+01
 7.0617333e+00   4.2213117e+01
 7.0672000e+00   4.1672244e+01
 7.0726667e+00   4.2366546e+01
 7.0781333e+00   4.2164381e+01
 7.0836000e+00   4.2441241e+01
 7.0890667e+00   4.2352305e+01
 7.0945333e+00   4.2912220e+01
 7.1000000e+00   4.2506014e+01
 7.1054667e+00   4.3148448e+01
 7.1109333e+00   4.2841411e+01
 7.1164000e+00   4.3320582e+01
 7.1218667e+00   4.3078157e+01
 7.1273333e+00   4.3347963e+01
 7.1328000e+00   4.3343640e+01
 7.1382667e+00   4.3335922e+01
 7.1437333e+00   4.3386897e+01
 7.1492000e+00   4.3303507e+01
 7.1546667e+00   4.3494728e+01
 7.1601333e+00   4.3203372e+01
 7.1656000e+00   4.3500409e+01
 7.1710667e+00   4.3461035e+01
 7.1765333e+00   4.3536675e+01
 7.1820000e+00   4.3444914e+01
 7.1874667e+00   4.3899106e+01
 7.1929333e+00   4.4094356e+01
 7.1984000e+00   4.4086782e+01
 7.2038667e+00   4.3882383e+01
 7.2093333e+00   4.4159600e+01
 7.2148000e+00   4.3929758e+01
 7.2202667e+00   4.3997264e+01
 7.2257333e+00   4.3683656e+01
 7.2312000e+00   4.3910898e+01
 7.2366667e+00   4.3942824e+01
 7.2421333e+00   4.3859613e+01
 7.2476000e+00   4.4095336e+01
 7.2530667e+00   4.4012023e+01
 7.2585333e+00   4.4168015e+01
 7.2640000e+00   4.4155825e+01
 7.2694667e+00   4.4352487e+01
 7.2749333e+00   4.4310224e+01
 7.2804000e+00   4.4582101e+01
 7.2858667e+00   4.4490895e+01
 7.2913333e+00   4.4819809e+01
 7.2968000e+00   4.4520474e+01
 7.3022667e+00   4.4865205e+01
 7.3077333e+00   4.4839211e+01
 7.3132000e+00   4.4865824e+01
 7.3186667e+00   4.4743728e+01
 7.3241333e+00   4.5017500e+01
 7.3296000e+00   4.5017078e+01
 7.3350667e+00   4.4867824e+01
 7.3405333e+00   4.5165480e+01
 7.3460000e+00   4.4982394e+01
 7.3514667e+00   4.5422790e+01
 7.3569333e+00   4.5148632e+01
 7.3624000e+00   4.5773619e+01
 7.3678667e+00   4.5220322e+01
 7.3733333e+00   4.6069977e+01
 7.3788000e+00   4.5408302e+01
 7.3842667e+00   4.5971639e+01
 7.3897333e+00   4.5733638e+01
 7.3952000e+00   4.6218934e+01
 7.4006667e+00   4.6003288e+01
 7.4061333e+00   4.6345031e+01
 7.4116000e+00   4.6156119e+01
 7.4170667e+00   4.6776035e+01
 7.4225333e+00   4.6242783e+01
 7.4280000e+00   4.6743379e+01
 7.4334667e+00   4.6706624e+01
 7.4389333e+00   4.6626074e+01
 7.4444000e+00   4.6787669e+01
 7.4498667e+00   4.6944320e+01
 7.4553333e+00   4.6964975e+01
 7.4608000e+00   4.7282030e+01
 7.4662667e+00   4.7235287e+01
 7.4717333e+00   4.7128524e+01
 7.4772000e+00   4.7642109e+01
 7.4826667e+00   4.7031745e+01
 7.4881333e+00   4.7785118e+01
 7.4936000e+00   4.7443777e+01
 7.4990667e+00   4.7904675e+01
 7.5045333e+00   4.7665121e+01
 7.5100000e+00   4.8432579e+01
 7.5154667e+00   4.7821248e+01
 7.5209333e+00   4.8564672e+01
 7.5264000e+00   4.8199678e+01
 7.5318667e+00   4.8802362e+01
 7.5373333e+00   4.8438855e+01
 7.5428000e+00   4.9227621e+01
 7.5482667e+00   4.8707782e+01
 7.5537333e+00   4.9306258e+01
 7.5592000e+00   4.9361622e+01
 7.5646667e+00   4.9473921e+01
 7.5701333e+00   4.9743592e+01
 7.5756000e+00   4.9792630e+01
 7.5810667e+00   4.9870868e+01
 7.5865333e+00   5.0003179e+01
 7.5920000e+00   5.0424892e+01
 7.5974667e+00   5.0066559e+01
 7.6029333e+00   5.0583757e+01
 7.6084000e+00   5.0559814e+01
 7.6138667e+00   5.0985791e+01
 7.6193333e+00   5.1120490e+01
 7.6248000e+00   5.1374054e+01
 7.6302667e+00   5.1160494e+01
 7.6357333e+00   5.2077357e+01
 7.6412000e+00   5.1525266e+01
 7.6466667e+00   5.2442080e+01
 7.6521333e+00   5.2413025e+01
 7.6576000e+00   5.2845440e+01
 7.6630667e+00   5.2807580e+01
 7.6685333e+00   5.3566978e+01
 7.6740000e+00   5.3747663e+01
 7.6794667e+00   5.4232481e+01
 7.6849333e+00   5.4414313e+01
 7.6904000e+00   5.5376971e+01
 7.6958667e+00   5.5182727e+01
 7.7013333e+00   5.5670020e+01
 7.7068000e+00   5.6302697e+01
 7.7122667e+00   5.6200780e+01
 7.7177333e+00   5.7699064e+01
 7.7232000e+00   5.7369132e+01
 7.7286667e+00   5.8193927e+01
 7.7341333e+00   5.9537167e+01
 7.7396000e+00   5.9683174e+01
 7.7450667e+00   6.1788925e+01
 7.7505333e+00   6.4396304e+01
 7.7560000e+00   6.5089836e+01
 7.7614667e+00   7.0810631e+01
 7.7669333e+00   7.6913325e+01
 7.7724000e+00   8.0302189e+01
 7.7778667e+00   8.4051343e+01
 7.7833333e+00   8.8668466e+01
 7.7888000e+00   9.4864907e+01
 7.7942667e+00   9.3936345e+01
 7.7997333e+00   1.0307359e+02
 7.8052000e+00   1.1133296e+02
 7.8106667e+00   1.1118235e+02
 7.8161333e+00   1.2367698e+02
 7.8216000e+00   1.3268731e+02
 7.8270667e+00   1.1652959e+02
 7.8325333e+00   1.3797076e+02
 7.8380000e+00   1.1647155e+02
 7.8434667e+00   1.3431564e+02
 7.8489333e+00   1.0996203e+02
 7.8544000e+00   1.2070752e+02
 7.8598667e+00   9.2638064e+01
 7.8653333e+00   8.9484755e+01
 7.8708000e+00   7.6093857e+01
 7.8762667e+00   6.9176826e+01
 7.8817333e+00   6.4899148e+01
 7.8872000e+00   6.3780601e+01
 7.8926667e+00   6.1497025e+01
 7.8981333e+00   6.1329582e+01
 7.9036000e+00   6.0887056e+01
 7.9090667e+00   5.9527030e+01
 7.9145333e+00   6.0463597e+01
 7.9200000e+00   5.9626463e+01
 7.9254667e+00   5.8812759e+01
 7.9309333e+00   5.9068128e+01
 7.9364000e+00   5.8527850e+01
 7.9418667e+00   5.7550514e+01
 7.9473333e+00   5.8451017e+01
 7.9528000e+00   5.6826794e+01
 7.9582667e+00   5.7343255e+01
 7.9637333e+00   5.7042578e+01
 7.9692000e+00   5.6595438e+01
 7.9746667e+00   5.6446768e+01
 7.9801333e+00   5.6302792e+01
 7.9856000e+00   5.6251791e+01
 7.9910667e+00   5.5934016e+01
 7.9965333e+00   5.6266585e+01
 8.0020000e+00   5.5980152e+01
 8.0074667e+00   5.5790942e+01
 8.0129333e+00   5.5820824e+01
 8.0184000e+00   5.6451330e+01
 8.0238667e+00   5.5478857e+01
 8.0293333e+00   5.6368663e+01
 8.0348000e+00   5.5846250e+01
 8.0402667e+00   5.6680379e+01
 8.0457333e+00   5.6898188e+01
 8.0512000e+00   5.7141682e+01
 8.0566667e+00   6.0506304e+01
 8.0621333e+00   6.0566539e+01
 8.0676000e+00   7.4890937e+01
 8.0730667e+00   6.8053032e+01
 8.0785333e+00   8.3155882e+01
 8.0840000e+00   7.1681751e+01
 8.0894667e+00   9.1288078e+01
 8.0949333e+00   7.8052852e+01
 8.1004000e+00   1.1736034e+02
 8.1058667e+00   1.0940809e+02
 8.1113333e+00   1.4349868e+02
 8.1168000e+00   1.3448014e+02
 8.1222667e+00   1.3412989e+02
 8.1277333e+00   1.2065749e+02
 8.1332000e+00   1.3103524e+02
 8.1386667e+00   1.0723326e+02
 8.1441333e+00   1.1401784e+02
 8.1496000e+00   9.7393816e+01
 8.1550667e+00   1.0243269e+02
 8.1605333e+00   9.1748014e+01
 8.1660000e+00   8.6261253e+01
 8.1714667e+00   9.4527193e+01
 8.1769333e+00   8.4144118e+01
 8.1824000e+00   7.9874810e+01
 8.1878667e+00   7.1905445e+01
 8.1933333e+00   6.4777946e+01
 8.1988000e+00   5.8646206e+01
 8.2042667e+00   5.6885555e+01
 8.2097333e+00   5.5678758e+01
 8.2152000e+00   5.5138969e+01
 8.2206667e+00   5.4833810e+01
 8.2261333e+00   5.4753780e+01
 8.2316000e+00   5.4210864e+01
 8.2370667e+00   5.4299545e+01
 8.2425333e+00   5.3571238e+01
 8.2480000e+00   5.3923100e+01
 8.2534667e+00   5.3107321e+01
 8.2589333e+00   5.3581860e+01
 8.2644000e+00   5.2901380e+01
 8.2698667e+00   5.3290439e+01
 8.2753333e+00   5.2464056e+01
 8.2808000e+00   5.2980079e+01
 8.2862667e+00   5.2344565e+01
 8.2917333e+00   5.2568550e+01
 8.2972000e+00   5.2364254e+01
 8.3026667e+00   5.2476525e+01
 8.3081333e+00   5.2005881e+01
 8.3136000e+00   5.2027021e+01
 8.3190667e+00   5.1931963e+01
 8.3245333e+00   5.1883565e+01
 8.3300000e+00   5.1948471e+01
 8.3354667e+00   5.1692907e+01
 8.3409333e+00   5.1920228e+01
 8.3464000e+00   5.1680923e+01
 8.3518667e+00   5.1629631e+01
 8.3573333e+00   5.1469770e+01
 8.3628000e+00   5.1784732e+01
 8.3682667e+00   5.1184099e+01
 8.3737333e+00   5.1638659e+01
 8.3792000e+00   5.1128926e+01
 8.3846667e+00   5.1650631e+01
 8.3901333e+00   5.1050266e+01
 8.3956000e+00   5.1412194e+01
 8.4010667e+00   5.0936022e+01
 8.4065333e+00   5.1262186e+01
 8.4120000e+00   5.0929992e+01
 8.4174667e+00   5.1164211e+01
 8.4229333e+00   5.0883880e+01
 8.4284000e+00   5.1004596e+01
 8.4338667e+00   5.0938604e+01
 8.4393333e+00   5.1091020e+01
 8.4448000e+00   5.0870627e+01
 8.4502667e+00   5.0925590e+01
 8.4557333e+00   5.1136708e+01
 8.4612000e+00   5.0867466e+01
 8.4666667e+00   5.1189091e+01
 8.4721333e+00   5.0795156e+01
 8.4776000e+00   5.1404419e+01
 8.4830667e+00   5.0952175e+01
 8.4885333e+00   5.1344769e+01
 8.4940000e+00   5.1066898e+01
 8.4994667e+00   5.1340087e+01
 8.5049333e+00   5.0899789e+01
 8.5104000e+00   5.1231040e+01
 8.5158667e+00   5.0744511e+01
 8.5213333e+00   5.1125071e+01
 8.5268000e+00   5.0469636e+01
 8.5322667e+00   5.0833831e+01
 8.5377333e+00   5.0332357e+01
 8.5432000e+00   5.0594296e+01
 8.5486667e+00   5.0215906e+01
 8.5541333e+00   5.0348016e+01
 8.5596000e+00   4.9950215e+01
 8.5650667e+00   5.0360234e+01
 8.5705333e+00   4.9929952e+01
 8.5760000e+00   4.9978914e+01
 8.5814667e+00   5.0004509e+01
 8.5869333e+00   4.9931897e+01
 8.5924000e+00   4.9656017e+01
 8.5978667e+00   5.0076918e+01
 8.6033333e+00   4.9903383e+01
 8.6088000e+00   4.9985314e+01
 8.6142667e+00   5.0213950e+01
 8.6197333e+00   4.9852188e+01
 8.6252000e+00   4.9960496e+01
 8.6306667e+00   4.9882013e+01
 8.6361333e+00   4.9500730e+01
 8.6416000e+00   4.9422981e+01
 8.6470667e+00   4.9556627e+01
 8.6525333e+00   4.9294960e+01
 8.6580000e+00   4.9250272e+01
 8.6634667e+00   4.9313971e+01
 8.6689333e+00   4.9158655e+01
 8.6744000e+00   4.9099295e+01
 8.6798667e+00   4.9100404e+01
 8.6853333e+00   4.9240799e+01
 8.6908000e+00   4.8831627e+01
 8.6962667e+00   4.8955959e+01
 8.7017333e+00   4.8867480e+01
 8.7072000e+00   4.8936878e+01
 8.7126667e+00   4.8841180e+01
 8.7181333e+00   4.8881639e+01
 8.7236000e+00   4.8486730e+01
 8.7290667e+00   4.8788333e+01
 8.7345333e+00   4.8723018e+01
 8.7400000e+00   4.8653658e+01
 8.7454667e+00   4.8778052e+01
 8.7509333e+00   4.8503682e+01
 8.7564000e+00   4.8677190e+01
 8.7618667e+00   4.8464218e+01
 8.7673333e+00   4.8777874e+01
 8.7728000e+00   4.8432486e+01
 8.7782667e+00   4.8638448e+01
 8.7837333e+00   4.8520117e+01
 8.7892000e+00   4.8282804e+01
 8.7946667e+00   4.8281642e+01
 8.8001333e+00   4.8641714e+01
 8.8056000e+00   4.8099311e+01
 8.8110667e+00   4.8373741e+01
 8.8165333e+00   4.8067427e+01
 8.8220000e+00   4.8424437e+01
 8.8274667e+00   4.7972579e+01
 8.8329333e+00   4.8347654e+01
 8.8384000e+00   4.7936369e+01
 8.8438667e+00   4.8309532e+01
 8.8493333e+00   4.7813555e+01
 8.8548000e+00   4.8157970e+01
 8.8602667e+00   4.7927713e+01
 8.8657333e+00   4.7939221e+01
 8.8712000e+00   4.8046525e+01
 8.8766667e+00   4.7845121e+01
 8.8821333e+00   4.8171786e+01
 8.8876000e+00   4.7835579e+01
 8.8930667e+00   4.8220331e+01
 8.8985333e+00   4.7913105e+01
 8.9040000e+00   4.8052512e+01
 8.9094667e+00   4.7868163e+01
 8.9149333e+00   4.8093288e+01
 8.9204000e+00   4.7774274e+01
 8.9258667e+00   4.7970182e+01
 8.9313333e+00   4.7729858e+01
 8.9368000e+00   4.7971092e+01
 8.9422667e+00   4.7405432e+01
 8.9477333e+00   4.8085785e+01
 8.9532000e+00   4.7597418e+01
 8.9586667e+00   4.7899597e+01
 8.9641333e+00   4.7535193e+01
 8.9696000e+00   4.7943573e+01
 8.9750667e+00   4.7536108e+01
 8.9805333e+00   4.7930941e+01
 8.9860000e+00   4.7488092e+01
 8.9914667e+00   4.8102672e+01
 8.9969333e+00   4.7819982e+01
 9.0024000e+00   4.8621095e+01
 9.0078667e+00   4.8638353e+01
 9.0133333e+00   5.1138104e+01
 9.0188000e+00   5.0637974e+01
 9.0242667e+00   6.0214223e+01
 9.0297333e+00   5.5973072e+01
 9.0352000e+00   5.7646300e+01
 9.0406667e+00   5.8228425e+01
 9.0461333e+00   5.8957616e+01
 9.0516000e+00   5.3868106e+01
 9.0570667e+00   5.0620002e+01
 9.0625333e+00   5.2070041e+01
 9.0680000e+00   4.9202998e+01
 9.0734667e+00   4.9246830e+01
 9.0789333e+00   4.8396512e+01
 9.0844000e+00   4.8487442e+01
 9.0898667e+00   4.7531982e+01
 9.0953333e+00   4.7274681e+01
 9.1008000e+00   4.6595432e+01
 9.1062667e+00   4.6653587e+01
 9.1117333e+00   4.6326853e+01
 9.1172000e+00   4.6381002e+01
 9.1226667e+00   4.5947183e+01
 9.1281333e+00   4.6001800e+01
 9.1336000e+00   4.5862704e+01
 9.1390667e+00   4.5622099e+01
 9.1445333e+00   4.5819949e+01
 9.1500000e+00   4.5470116e+01
 9.1554667e+00   4.5623723e+01
 9.1609333e+00   4.5296064e+01
 9.1664000e+00   4.5518947e+01
 9.1718667e+00   4.5311238e+01
 9.1773333e+00   4.5201107e+01
 9.1828000e+00   4.5267227e+01
 9.1882667e+00   4.5080616e+01
 9.1937333e+00   4.5033447e+01
 9.1992000e+00   4.4916209e+01
 9.2046667e+00   4.4936256e+01
 9.2101333e+00   4.4673410e+01
 9.2156000e+00   4.4858965e+01
 9.2210667e+00   4.4481537e+01
 9.2265333e+00   4.4533629e+01
 9.2320000e+00   4.4447173e+01
 9.2374667e+00   4.4468778e+01
 9.2429333e+00   4.4168404e+01
 9.2484000e+00   4.4635606e+01
 9.2538667e+00   4.3935742e+01
 9.2593333e+00   4.4603450e+01
 9.2648000e+00   4.4064878e+01
 9.2702667e+00   4.4368130e+01
 9.2757333e+00   4.4108340e+01
 9.2812000e+00   4.4457477e+01
 9.2866667e+00   4.3954325e+01
 9.2921333e+00   4.4125397e+01
 9.2976000e+00   4.3802346e+01
 9.3030667e+00   4.4198908e+01
 9.3085333e+00   4.3578740e+01
 9.3140000e+00   4.4211800e+01
 9.3194667e+00   4.3665191e+01
 9.3249333e+00   4.4210661e+01
 9.3304000e+00   4.3668569e+01
 9.3358667e+00   4.3737821e+01
 9.3413333e+00   4.3780057e+01
 9.3468000e+00   4.3632206e+01
 9.3522667e+00   4.3541208e+01
 9.3577333e+00   4.3773956e+01
 9.3632000e+00   4.3528568e+01
 9.3686667e+00   4.3878485e+01
 9.3741333e+00   4.3600223e+01
 9.3796000e+00   4.3730049e+01
 9.3850667e+00   4.3809439e+01
 9.3905333e+00   4.3424975e+01
 9.3960000e+00   4.4097217e+01
 9.4014667e+00   4.3415800e+01
 9.4069333e+00   4.3913183e+01
 9.4124000e+00   4.3632751e+01
 9.4178667e+00   4.3972541e+01
 9.4233333e+00   4.3781115e+01
 9.4288000e+00   4.4220760e+01
 9.4342667e+00   4.3515858e+01
 9.4397333e+00   4.4594151e+01
 9.4452000e+00   4.3830092e+01
 9.4506667e+00   4.4735389e+01
 9.4561333e+00   4.4410830e+01
 9.4616000e+00   4.6481289e+01
 9.4670667e+00   4.5648154e+01
 9.4725333e+00   5.7091932e+01
 9.4780000e+00   5.1099142e+01
 9.4834667e+00   5.9359246e+01
 9.4889333e+00   7.0604444e+01
 9.4944000e+00   6.5893403e+01
 9.4998667e+00   9.3525026e+01
 9.5053333e+00   8.6978276e+01
 9.5108000e+00   9.5935803e+01
 9.5162667e+00   8.6025559e+01
 9.5217333e+00   7.9640135e+01
 9.5272000e+00   8.4542967e+01
 9.5326667e+00   7.7956814e+01
 9.5381333e+00   8.2371545e+01
 9.5436000e+00   7.9539548e+01
 9.5490667e+00   9.0060084e+01
 9.5545333e+00   1.0594355e+02
 9.5600000e+00   1.0967966e+02
 9.5654667e+00   1.0185637e+02
 9.5709333e+00   1.0173041e+02
 9.5764000e+00   9.3808955e+01
 9.5818667e+00   8.4082818e+01
 9.5873333e+00   6.3511913e+01
 9.5928000e+00   5.4620074e+01
 9.5982667e+00   4.9530853e+01
 9.6037333e+00   4.5528196e+01
 9.6092000e+00   4.4527046e+01
 9.6146667e+00   4.3426843e+01
 9.6201333e+00   4.3050137e+01
 9.6256000e+00   4.2586793e+01
 9.6310667e+00   4.2727760e+01
 9.6365333e+00   4.2040664e+01
 9.6420000e+00   4.2297189e+01
 9.6474667e+00   4.1962494e+01
 9.6529333e+00   4.1999904e+01
 9.6584000e+00   4.1635866e+01
 9.6638667e+00   4.1987398e+01
 9.6693333e+00   4.1251986e+01
 9.6748000e+00   4.1793042e+01
 9.6802667e+00   4.1324625e+01
 9.6857333e+00   4.1428808e+01
 9.6912000e+00   4.1243867e+01
 9.6966667e+00   4.1338774e+01
 9.7021333e+00   4.1007906e+01
 9.7076000e+00   4.1013336e+01
 9.7130667e+00   4.0726125e+01
 9.7185333e+00   4.0897348e+01
 9.7240000e+00   4.0693390e+01
 9.7294667e+00   4.0613024e+01
 9.7349333e+00   4.0686869e+01
 9.7404000e+00   4.0369829e+01
 9.7458667e+00   4.0602567e+01
 9.7513333e+00   4.0233805e+01
 9.7568000e+00   4.0489997e+01
 9.7622667e+00   4.0282185e+01
 9.7677333e+00   4.0086541e+01
 9.7732000e+00   4.0200326e+01
 9.7786667e+00   4.0363710e+01
 9.7841333e+00   3.9832449e+01
 9.7896000e+00   4.0050112e+01
 9.7950667e+00   3.9865413e+01
 9.8005333e+00   4.0009924e+01
 9.8060000e+00   4.0001548e+01
 9.8114667e+00   3.9878172e+01
 9.8169333e+00   4.0087367e+01
 9.8224000e+00   4.0136098e+01
 9.8278667e+00   3.9781813e+01
 9.8333333e+00   4.0153731e+01
 9.8388000e+00   4.0011753e+01
 9.8442667e+00   3.9993347e+01
 9.8497333e+00   4.0240415e+01
 9.8552000e+00   4.0119552e+01
 9.8606667e+00   4.0084745e+01
 9.8661333e+00   4.0316263e+01
 9.8716000e+00   4.0321732e+01
 9.8770667e+00   4.0251337e+01
 9.8825333e+00   4.0411463e+01
 9.8880000e+00   4.0541860e+01
 9.8934667e+00   4.0866455e+01
 9.8989333e+00   4.1024465e+01
 9.9044000e+00   4.1599716e+01
 9.9098667e+00   4.2547130e+01
 9.9153333e+00   4.4855137e+01
 9.9208000e+00   4.7539792e+01
 9.9262667e+00   5.0771794e+01
 9.9317333e+00   5.2571355e+01
 9.9372000e+00   6.1241569e+01
 9.9426667e+00   7.1677254e+01
 9.9481333e+00   5.9613635e+01
 9.9536000e+00   8.0851840e+01
 9.9590667e+00   6.4697382e+01
 9.9645333e+00   6.9341108e+01
 9.9700000e+00   6.9624107e+01
 9.9754667e+00   6.2717984e+01
 9.9809333e+00   6.9143014e+01
 9.9864000e+00   7.2769976e+01
 9.9918667e+00   6.3208564e+01
 9.9973333e+00   6.5311120e+01
 1.0002800e+01   5.1402870e+01
 1.0008267e+01   4.5432557e+01
 1.0013733e+01   4.5039315e+01
 1.0019200e+01   4.3481275e+01
 1.0024667e+01   4.1591827e+01
 1.0030133e+01   4.1400429e+01
 1.0035600e+01   4.1227206e+01
 1.0041067e+01   4.1535067e+01
 1.0046533e+01   4.0416905e+01
 1.0052000e+01   4.2100432e+01
 1.0057467e+01   4.2398537e+01
 1.0062933e+01   4.0791896e+01
 1.0068400e+01   4.5102264e+01
 1.0073867e+01   5.3582907e+01
 1.0079333e+01   4.2818847e+01
 1.0084800e+01   6.0288827e+01
 1.0090267e+01   7.1611370e+01
 1.0095733e+01   5.4796475e+01
 1.0101200e+01   7.6026206e+01
 1.0106667e+01   8.0540887e+01
 1.0112133e+01   7.1460918e+01
 1.0117600e+01   7.8702279e+01
 1.0123067e+01   7.5061769e+01
 1.0128533e+01   5.9654966e+01
 1.0134000e+01   5.7542445e+01
 1.0139467e+01   4.8551165e+01
 1.0144933e+01   4.3493950e+01
 1.0150400e+01   4.2463812e+01
 1.0155867e+01   4.1409188e+01
 1.0161333e+01   3.9448030e+01
 1.0166800e+01   4.0160007e+01
 1.0172267e+01   3.9356540e+01
 1.0177733e+01   3.8822203e+01
 1.0183200e+01   3.8962031e+01
 1.0188667e+01   3.8798568e+01
 1.0194133e+01   3.8618634e+01
 1.0199600e+01   3.8472301e+01
 1.0205067e+01   3.8332598e+01
 1.0210533e+01   3.8575910e+01
 1.0216000e+01   3.7677867e+01
 1.0221467e+01   3.8487706e+01
 1.0226933e+01   3.7835692e+01
 1.0232400e+01   3.8333102e+01
 1.0237867e+01   3.7523357e+01
 1.0243333e+01   3.8221954e+01
 1.0248800e+01   3.7253703e+01
 1.0254267e+01   3.7853686e+01
 1.0259733e+01   3.7363016e+01
 1.0265200e+01   3.7551641e+01
 1.0270667e+01   3.7205424e+01
 1.0276133e+01   3.7603617e+01
 1.0281600e+01   3.7011868e+01
 1.0287067e+01   3.7185439e+01
 1.0292533e+01   3.7208120e+01
 1.0298000e+01   3.7040753e+01
 1.0303467e+01   3.7034163e+01
 1.0308933e+01   3.6993158e+01
 1.0314400e+01   3.6867116e+01
 1.0319867e+01   3.6870440e+01
 1.0325333e+01   3.6918046e+01
 1.0330800e+01   3.6836689e+01
 1.0336267e+01   3.6812905e+01
 1.0341733e+01   3.6752256e+01
 1.0347200e+01   3.6730867e+01
 1.0352667e+01   3.6632487e+01
 1.0358133e+01   3.6769203e+01
 1.0363600e+01   3.6549677e+01
 1.0369067e+01   3.6688310e+01
 1.0374533e+01   3.6235309e+01
 1.0380000e+01   3.6637477e+01
 1.0385467e+01   3.6121427e+01
 1.0390933e+01   3.6407662e+01
 1.0396400e+01   3.6237033e+01
 1.0401867e+01   3.6345633e+01
 1.0407333e+01   3.6202596e+01
 1.0412800e+01   3.6369269e+01
 1.0418267e+01   3.6110864e+01
 1.0423733e+01   3.6445397e+01
 1.0429200e+01   3.6023708e+01
 1.0434667e+01   3.6455596e+01
 1.0440133e+01   3.6378256e+01
 1.0445600e+01   3.6160519e+01
 1.0451067e+01   3.7119281e+01
 1.0456533e+01   3.6102663e+01
 1.0462000e+01   3.6105707e+01
 1.0467467e+01   3.5989921e+01
 1.0472933e+01   3.5979832e+01
 1.0478400e+01   3.5989267e+01
 1.0483867e+01   3.6056700e+01
 1.0489333e+01   3.6006934e+01
 1.0494800e+01   3.5874851e+01
 1.0500267e+01   3.6088483e+01
 1.0505733e+01   3.5913583e+01
 1.0511200e+01   3.5946911e+01
 1.0516667e+01   3.5963074e+01
 1.0522133e+01   3.5930425e+01
 1.0527600e+01   3.5825353e+01
 1.0533067e+01   3.5943545e+01
 1.0538533e+01   3.6061238e+01
 1.0544000e+01   3.5800592e+01
 1.0549467e+01   3.5932095e+01
 1.0554933e+01   3.5799911e+01
 1.0560400e+01   3.6000924e+01
 1.0565867e+01   3.5779058e+01
 1.0571333e+01   3.5992364e+01
 1.0576800e+01   3.5689937e+01
 1.0582267e+01   3.5990680e+01
 1.0587733e+01   3.5826068e+01
 1.0593200e+01   3.5886368e+01
 1.0598667e+01   3.5515430e+01
 1.0604133e+01   3.5970688e+01
 1.0609600e+01   3.5708582e+01
 1.0615067e+01   3.5660276e+01
 1.0620533e+01   3.5550749e+01
 1.0626000e+01   3.5713396e+01
 1.0631467e+01   3.5583243e+01
 1.0636933e+01   3.5636795e+01
 1.0642400e+01   3.5702879e+01
 1.0647867e+01   3.5781221e+01
 1.0653333e+01   3.5481138e+01
 1.0658800e+01   3.5660413e+01
 1.0664267e+01   3.5438662e+01
 1.0669733e+01   3.5829184e+01
 1.0675200e+01   3.5548057e+01
 1.0680667e+01   3.5705082e+01
 1.0686133e+01   3.5619514e+01
 1.0691600e+01   3.5548257e+01
 1.0697067e+01   3.5693082e+01
 1.0702533e+01   3.5528078e+01
 1.0708000e+01   3.5740857e+01
 1.0713467e+01   3.5545191e+01
 1.0718933e+01   3.6063325e+01
 1.0724400e+01   3.5523975e+01
 1.0729867e+01   3.5550908e+01
 1.0735333e+01   3.5676324e+01
 1.0740800e+01   3.5691239e+01
 1.0746267e+01   3.5416336e+01
 1.0751733e+01   3.5685728e+01
 1.0757200e+01   3.5382986e+01
 1.0762667e+01   3.5678879e+01
 1.0768133e+01   3.5457155e+01
 1.0773600e+01   3.5786901e+01
 1.0779067e+01   3.5162968e+01
 1.0784533e+01   3.5750865e+01
 1.0790000e+01   3.5283921e+01
 1.0795467e+01   3.5757270e+01
 1.0800933e+01   3.5190554e+01
 1.0806400e+01   3.5909282e+01
 1.0811867e+01   3.5233598e+01
 1.0817333e+01   3.5874075e+01
 1.0822800e+01   3.5336493e+01
 1.0828267e+01   3.5957246e+01
 1.0833733e+01   3.5338353e+01
 1.0839200e+01   3.5663470e+01
 1.0844667e+01   3.5606685e+01
 1.0850133e+01   3.5728815e+01
 1.0855600e+01   3.5509013e+01
 1.0861067e+01   3.5661737e+01
 1.0866533e+01   3.5413310e+01
 1.0872000e+01   3.5679637e+01
 1.0877467e+01   3.5514283e+01
 1.0882933e+01   3.5418802e+01
 1.0888400e+01   3.5898352e+01
 1.0893867e+01   3.5629226e+01
 1.0899333e+01   3.5663130e+01
 1.0904800e+01   3.5461558e+01
 1.0910267e+01   3.5662851e+01
 1.0915733e+01   3.5379649e+01
 1.0921200e+01   3.5822106e+01
 1.0926667e+01   3.5456606e+01
 1.0932133e+01   3.5831774e+01
 1.0937600e+01   3.5453998e+01
 1.0943067e+01   3.5790099e+01
 1.0948533e+01   3.5462127e+01
 1.0954000e+01   3.5942471e+01
 1.0959467e+01   3.5537119e+01
 1.0964933e+01   3.6049779e+01
 1.0970400e+01   3.5464376e+01
 1.0975867e+01   3.6108125e+01
 1.0981333e+01   3.5611353e+01
 1.0986800e+01   3.6049753e+01
 1.0992267e+01   3.5504995e+01
 1.0997733e+01   3.6148745e+01
 1.1003200e+01   3.5685461e+01
 1.1008667e+01   3.5861002e+01
 1.1014133e+01   3.5812571e+01
 1.1019600e+01   3.6345771e+01
 1.1025067e+01   3.5835467e+01
 1.1030533e+01   3.6116161e+01
 1.1036000e+01   3.6124312e+01
 1.1041467e+01   3.6034090e+01
 1.1046933e+01   3.6278342e+01
 1.1052400e+01   3.6169300e+01
 1.1057867e+01   3.6492011e+01
 1.1063333e+01   3.6407055e+01
 1.1068800e+01   3.6625010e+01
 1.1074267e+01   3.6444920e+01
 1.1079733e+01   3.6719336e+01
 1.1085200e+01   3.6338720e+01
 1.1090667e+01   3.6772042e+01
 1.1096133e+01   3.6391094e+01
 1.1101600e+01   3.6634637e+01
 1.1107067e+01   3.6359748e+01
 1.1112533e+01   3.6665941e+01
 1.1118000e+01   3.6080414e+01
 1.1123467e+01   3.6413551e+01
 1.1128933e+01   3.5905210e+01
 1.1134400e+01   3.6467825e+01
 1.1139867e+01   3.5914394e+01
 1.1145333e+01   3.6260851e+01
 1.1150800e+01   3.6004207e+01
 1.1156267e+01   3.6259267e+01
 1.1161733e+01   3.5746066e+01
 1.1167200e+01   3.6304901e+01
 1.1172667e+01   3.5856969e+01
 1.1178133e+01   3.6235137e+01
 1.1183600e+01   3.5580280e+01
 1.1189067e+01   3.6300802e+01
 1.1194533e+01   3.5786753e+01
