PWDR ff_004458_sum_norm_dc_0.tif Azm= 352.fxye Bank 1
2-Theta Angle (Degrees)
Intensity
       1500
 3.0000000e+00   4.7696729e+01
 3.0054667e+00   4.7080349e+01
 3.0109333e+00   4.7082502e+01
 3.0164000e+00   4.6786480e+01
 3.0218667e+00   4.6583739e+01
 3.0273333e+00   4.6279258e+01
 3.0328000e+00   4.6134754e+01
 3.0382667e+00   4.5925970e+01
 3.0437333e+00   4.5712264e+01
 3.0492000e+00   4.5588119e+01
 3.0546667e+00   4.5552100e+01
 3.0601333e+00   4.5064341e+01
 3.0656000e+00   4.5208911e+01
 3.0710667e+00   4.4729295e+01
 3.0765333e+00   4.4479553e+01
 3.0820000e+00   4.4622657e+01
 3.0874667e+00   4.4015955e+01
 3.0929333e+00   4.4282566e+01
 3.0984000e+00   4.3872655e+01
 3.1038667e+00   4.3823231e+01
 3.1093333e+00   4.3503537e+01
 3.1148000e+00   4.3705073e+01
 3.1202667e+00   4.3333250e+01
 3.1257333e+00   4.3607355e+01
 3.1312000e+00   4.3066665e+01
 3.1366667e+00   4.3394006e+01
 3.1421333e+00   4.3021611e+01
 3.1476000e+00   4.2819776e+01
 3.1530667e+00   4.2782422e+01
 3.1585333e+00   4.2507341e+01
 3.1640000e+00   4.2405273e+01
 3.1694667e+00   4.2395916e+01
 3.1749333e+00   4.2000804e+01
 3.1804000e+00   4.2169374e+01
 3.1858667e+00   4.1730974e+01
 3.1913333e+00   4.1717370e+01
 3.1968000e+00   4.1612236e+01
 3.2022667e+00   4.1340745e+01
 3.2077333e+00   4.1507992e+01
 3.2132000e+00   4.1003598e+01
 3.2186667e+00   4.1350845e+01
 3.2241333e+00   4.0894241e+01
 3.2296000e+00   4.0859853e+01
 3.2350667e+00   4.0907945e+01
 3.2405333e+00   4.0681166e+01
 3.2460000e+00   4.0589971e+01
 3.2514667e+00   4.0524625e+01
 3.2569333e+00   4.0400892e+01
 3.2624000e+00   4.0320973e+01
 3.2678667e+00   4.0337500e+01
 3.2733333e+00   4.0218905e+01
 3.2788000e+00   4.0596202e+01
 3.2842667e+00   4.0116986e+01
 3.2897333e+00   4.0389385e+01
 3.2952000e+00   4.0016028e+01
 3.3006667e+00   4.0082343e+01
 3.3061333e+00   3.9941880e+01
 3.3116000e+00   3.9925368e+01
 3.3170667e+00   3.9629781e+01
 3.3225333e+00   4.0055757e+01
 3.3280000e+00   3.9189132e+01
 3.3334667e+00   3.9374884e+01
 3.3389333e+00   3.9201439e+01
 3.3444000e+00   3.9004637e+01
 3.3498667e+00   3.9265341e+01
 3.3553333e+00   3.9062561e+01
 3.3608000e+00   3.9222117e+01
 3.3662667e+00   3.8747552e+01
 3.3717333e+00   3.9647369e+01
 3.3772000e+00   3.8849501e+01
 3.3826667e+00   4.1362924e+01
 3.3881333e+00   3.9018462e+01
 3.3936000e+00   3.8996743e+01
 3.3990667e+00   3.9437407e+01
 3.4045333e+00   3.8930097e+01
 3.4100000e+00   3.8852432e+01
 3.4154667e+00   3.8809475e+01
 3.4209333e+00   3.8937440e+01
 3.4264000e+00   3.8629924e+01
 3.4318667e+00   3.8712036e+01
 3.4373333e+00   3.8820193e+01
 3.4428000e+00   3.8450561e+01
 3.4482667e+00   3.8510176e+01
 3.4537333e+00   3.8457719e+01
 3.4592000e+00   3.8291631e+01
 3.4646667e+00   3.8520318e+01
 3.4701333e+00   3.8413586e+01
 3.4756000e+00   3.8816652e+01
 3.4810667e+00   3.8591236e+01
 3.4865333e+00   3.8834812e+01
 3.4920000e+00   3.8165586e+01
 3.4974667e+00   3.8490675e+01
 3.5029333e+00   3.8200134e+01
 3.5084000e+00   3.8271396e+01
 3.5138667e+00   3.8439940e+01
 3.5193333e+00   3.8176857e+01
 3.5248000e+00   3.8357135e+01
 3.5302667e+00   3.8500176e+01
 3.5357333e+00   3.8365071e+01
 3.5412000e+00   3.8270680e+01
 3.5466667e+00   3.8473453e+01
 3.5521333e+00   3.8162734e+01
 3.5576000e+00   3.8328720e+01
 3.5630667e+00   3.8224762e+01
 3.5685333e+00   3.8198012e+01
 3.5740000e+00   3.8307472e+01
 3.5794667e+00   3.8427068e+01
 3.5849333e+00   3.8544612e+01
 3.5904000e+00   3.8589185e+01
 3.5958667e+00   3.8499989e+01
 3.6013333e+00   3.8706537e+01
 3.6068000e+00   3.8508996e+01
 3.6122667e+00   3.8639627e+01
 3.6177333e+00   3.8368381e+01
 3.6232000e+00   3.8376893e+01
 3.6286667e+00   3.8283605e+01
 3.6341333e+00   3.8399941e+01
 3.6396000e+00   3.8668813e+01
 3.6450667e+00   3.8355582e+01
 3.6505333e+00   3.8838435e+01
 3.6560000e+00   3.8559631e+01
 3.6614667e+00   3.8802965e+01
 3.6669333e+00   3.8693454e+01
 3.6724000e+00   3.9005047e+01
 3.6778667e+00   3.8539109e+01
 3.6833333e+00   3.8943363e+01
 3.6888000e+00   3.8888284e+01
 3.6942667e+00   3.9067226e+01
 3.6997333e+00   3.9200001e+01
 3.7052000e+00   3.9300444e+01
 3.7106667e+00   3.9277811e+01
 3.7161333e+00   3.9419208e+01
 3.7216000e+00   3.9366054e+01
 3.7270667e+00   3.9388296e+01
 3.7325333e+00   3.9583939e+01
 3.7380000e+00   3.9434482e+01
 3.7434667e+00   3.9752483e+01
 3.7489333e+00   3.9640106e+01
 3.7544000e+00   4.0007079e+01
 3.7598667e+00   3.9846987e+01
 3.7653333e+00   3.9989979e+01
 3.7708000e+00   4.0037618e+01
 3.7762667e+00   4.0142552e+01
 3.7817333e+00   3.9993891e+01
 3.7872000e+00   4.0262593e+01
 3.7926667e+00   4.0369251e+01
 3.7981333e+00   4.0488195e+01
 3.8036000e+00   4.0594823e+01
 3.8090667e+00   4.0830635e+01
 3.8145333e+00   4.0747689e+01
 3.8200000e+00   4.0949339e+01
 3.8254667e+00   4.0870039e+01
 3.8309333e+00   4.1032198e+01
 3.8364000e+00   4.1062043e+01
 3.8418667e+00   4.1305227e+01
 3.8473333e+00   4.1363859e+01
 3.8528000e+00   4.1379371e+01
 3.8582667e+00   4.1672722e+01
 3.8637333e+00   4.1527548e+01
 3.8692000e+00   4.1754003e+01
 3.8746667e+00   4.1861311e+01
 3.8801333e+00   4.1819929e+01
 3.8856000e+00   4.1991305e+01
 3.8910667e+00   4.2316744e+01
 3.8965333e+00   4.2258518e+01
 3.9020000e+00   4.2547495e+01
 3.9074667e+00   4.2664917e+01
 3.9129333e+00   4.2458613e+01
 3.9184000e+00   4.2576707e+01
 3.9238667e+00   4.2610735e+01
 3.9293333e+00   4.2545833e+01
 3.9348000e+00   4.2482959e+01
 3.9402667e+00   4.2734194e+01
 3.9457333e+00   4.2632043e+01
 3.9512000e+00   4.2765325e+01
 3.9566667e+00   4.2966989e+01
 3.9621333e+00   4.2871444e+01
 3.9676000e+00   4.3223397e+01
 3.9730667e+00   4.2907965e+01
 3.9785333e+00   4.3437560e+01
 3.9840000e+00   4.3307873e+01
 3.9894667e+00   4.3326753e+01
 3.9949333e+00   4.3502504e+01
 4.0004000e+00   4.3578058e+01
 4.0058667e+00   4.3547725e+01
 4.0113333e+00   4.3884694e+01
 4.0168000e+00   4.3933486e+01
 4.0222667e+00   4.4055068e+01
 4.0277333e+00   4.4180329e+01
 4.0332000e+00   4.4501176e+01
 4.0386667e+00   4.4447394e+01
 4.0441333e+00   4.5987199e+01
 4.0496000e+00   4.4803642e+01
 4.0550667e+00   4.5060512e+01
 4.0605333e+00   4.5399031e+01
 4.0660000e+00   4.5555144e+01
 4.0714667e+00   4.6497798e+01
 4.0769333e+00   4.7186226e+01
 4.0824000e+00   4.6336000e+01
 4.0878667e+00   4.7344330e+01
 4.0933333e+00   4.6949828e+01
 4.0988000e+00   4.7368465e+01
 4.1042667e+00   4.7641940e+01
 4.1097333e+00   4.7593908e+01
 4.1152000e+00   4.7827034e+01
 4.1206667e+00   4.8095735e+01
 4.1261333e+00   4.8425936e+01
 4.1316000e+00   4.8297217e+01
 4.1370667e+00   5.0732722e+01
 4.1425333e+00   4.7887042e+01
 4.1480000e+00   4.7907160e+01
 4.1534667e+00   4.7920005e+01
 4.1589333e+00   4.7578146e+01
 4.1644000e+00   4.7780885e+01
 4.1698667e+00   4.7635768e+01
 4.1753333e+00   4.7919580e+01
 4.1808000e+00   4.7768960e+01
 4.1862667e+00   4.8028114e+01
 4.1917333e+00   4.7923311e+01
 4.1972000e+00   4.7992141e+01
 4.2026667e+00   4.7921363e+01
 4.2081333e+00   4.8104597e+01
 4.2136000e+00   4.8175932e+01
 4.2190667e+00   4.8450699e+01
 4.2245333e+00   4.8379836e+01
 4.2300000e+00   4.8466386e+01
 4.2354667e+00   4.8789924e+01
 4.2409333e+00   4.8878545e+01
 4.2464000e+00   4.9058981e+01
 4.2518667e+00   4.9244554e+01
 4.2573333e+00   4.9723975e+01
 4.2628000e+00   5.0090545e+01
 4.2682667e+00   4.9698450e+01
 4.2737333e+00   5.0762724e+01
 4.2792000e+00   5.0198918e+01
 4.2846667e+00   5.0413998e+01
 4.2901333e+00   5.0835165e+01
 4.2956000e+00   5.0802685e+01
 4.3010667e+00   5.1043640e+01
 4.3065333e+00   5.1253977e+01
 4.3120000e+00   5.1592296e+01
 4.3174667e+00   5.1615188e+01
 4.3229333e+00   5.2047151e+01
 4.3284000e+00   5.2160892e+01
 4.3338667e+00   5.2401356e+01
 4.3393333e+00   5.2746695e+01
 4.3448000e+00   5.2669964e+01
 4.3502667e+00   5.3298442e+01
 4.3557333e+00   5.3249404e+01
 4.3612000e+00   5.3877178e+01
 4.3666667e+00   5.3935604e+01
 4.3721333e+00   5.4490060e+01
 4.3776000e+00   5.4623473e+01
 4.3830667e+00   5.5253084e+01
 4.3885333e+00   5.5684809e+01
 4.3940000e+00   5.6493749e+01
 4.3994667e+00   5.7014208e+01
 4.4049333e+00   5.7655222e+01
 4.4104000e+00   5.8505005e+01
 4.4158667e+00   5.9144254e+01
 4.4213333e+00   5.9748763e+01
 4.4268000e+00   5.9821319e+01
 4.4322667e+00   6.0752094e+01
 4.4377333e+00   6.1001579e+01
 4.4432000e+00   6.1735568e+01
 4.4486667e+00   6.2583215e+01
 4.4541333e+00   6.3435585e+01
 4.4596000e+00   6.4877634e+01
 4.4650667e+00   6.6824006e+01
 4.4705333e+00   6.9515304e+01
 4.4760000e+00   7.3379628e+01
 4.4814667e+00   8.0637608e+01
 4.4869333e+00   8.7777647e+01
 4.4924000e+00   1.0341405e+02
 4.4978667e+00   1.3866617e+02
 4.5033333e+00   1.7096404e+02
 4.5088000e+00   2.0297669e+02
 4.5142667e+00   2.3501998e+02
 4.5197333e+00   2.1640344e+02
 4.5252000e+00   1.8272292e+02
 4.5306667e+00   1.8354535e+02
 4.5361333e+00   1.5131324e+02
 4.5416000e+00   1.2668591e+02
 4.5470667e+00   1.1127263e+02
 4.5525333e+00   1.2420801e+02
 4.5580000e+00   8.5444517e+01
 4.5634667e+00   8.5816056e+01
 4.5689333e+00   7.1537469e+01
 4.5744000e+00   6.8416684e+01
 4.5798667e+00   6.5531681e+01
 4.5853333e+00   6.4309457e+01
 4.5908000e+00   6.3747871e+01
 4.5962667e+00   6.2757687e+01
 4.6017333e+00   6.2514660e+01
 4.6072000e+00   6.2534309e+01
 4.6126667e+00   6.1850901e+01
 4.6181333e+00   6.2551085e+01
 4.6236000e+00   6.2782324e+01
 4.6290667e+00   6.3057503e+01
 4.6345333e+00   6.3775908e+01
 4.6400000e+00   6.4508407e+01
 4.6454667e+00   6.5269234e+01
 4.6509333e+00   6.5697522e+01
 4.6564000e+00   6.5962090e+01
 4.6618667e+00   6.5650158e+01
 4.6673333e+00   6.4611276e+01
 4.6728000e+00   6.4600991e+01
 4.6782667e+00   6.3759411e+01
 4.6837333e+00   6.3066762e+01
 4.6892000e+00   6.2683517e+01
 4.6946667e+00   6.1929749e+01
 4.7001333e+00   6.1833788e+01
 4.7056000e+00   6.1399168e+01
 4.7110667e+00   6.1283445e+01
 4.7165333e+00   6.1240909e+01
 4.7220000e+00   6.1156957e+01
 4.7274667e+00   6.1200735e+01
 4.7329333e+00   6.1031679e+01
 4.7384000e+00   6.0568222e+01
 4.7438667e+00   6.0516813e+01
 4.7493333e+00   6.0998622e+01
 4.7548000e+00   6.0946042e+01
 4.7602667e+00   6.0408344e+01
 4.7657333e+00   6.5443304e+01
 4.7712000e+00   6.4887724e+01
 4.7766667e+00   6.4790128e+01
 4.7821333e+00   6.4801167e+01
 4.7876000e+00   6.0837823e+01
 4.7930667e+00   6.0244219e+01
 4.7985333e+00   6.0809874e+01
 4.8040000e+00   6.0557670e+01
 4.8094667e+00   6.0593899e+01
 4.8149333e+00   6.0961871e+01
 4.8204000e+00   6.1278464e+01
 4.8258667e+00   6.1330417e+01
 4.8313333e+00   6.1788090e+01
 4.8368000e+00   6.2359173e+01
 4.8422667e+00   6.2114116e+01
 4.8477333e+00   6.3491869e+01
 4.8532000e+00   6.2854844e+01
 4.8586667e+00   6.4236732e+01
 4.8641333e+00   6.4012577e+01
 4.8696000e+00   6.6039206e+01
 4.8750667e+00   6.4601008e+01
 4.8805333e+00   6.7020366e+01
 4.8860000e+00   6.6420722e+01
 4.8914667e+00   6.9101146e+01
 4.8969333e+00   6.9815569e+01
 4.9024000e+00   7.3410939e+01
 4.9078667e+00   7.6423888e+01
 4.9133333e+00   8.3953406e+01
 4.9188000e+00   9.6476043e+01
 4.9242667e+00   1.1834895e+02
 4.9297333e+00   1.4546263e+02
 4.9352000e+00   1.5986227e+02
 4.9406667e+00   2.9970125e+02
 4.9461333e+00   2.1880024e+02
 4.9516000e+00   4.5289865e+02
 4.9570667e+00   3.2615250e+02
 4.9625333e+00   5.2030258e+02
 4.9680000e+00   4.2823075e+02
 4.9734667e+00   4.4170340e+02
 4.9789333e+00   4.7959873e+02
 4.9844000e+00   4.0206067e+02
 4.9898667e+00   4.8569831e+02
 4.9953333e+00   3.7007116e+02
 5.0008000e+00   2.8920435e+02
 5.0062667e+00   2.4645055e+02
 5.0117333e+00   1.7764654e+02
 5.0172000e+00   1.5824802e+02
 5.0226667e+00   1.1363548e+02
 5.0281333e+00   9.7796810e+01
 5.0336000e+00   8.5177590e+01
 5.0390667e+00   7.6412482e+01
 5.0445333e+00   7.4433787e+01
 5.0500000e+00   7.0723599e+01
 5.0554667e+00   6.9575811e+01
 5.0609333e+00   6.8104276e+01
 5.0664000e+00   6.6793871e+01
 5.0718667e+00   6.6585188e+01
 5.0773333e+00   6.4839965e+01
 5.0828000e+00   6.4506452e+01
 5.0882667e+00   6.3497449e+01
 5.0937333e+00   6.3082249e+01
 5.0992000e+00   6.1932684e+01
 5.1046667e+00   6.1497208e+01
 5.1101333e+00   6.1026295e+01
 5.1156000e+00   6.0479930e+01
 5.1210667e+00   5.9668881e+01
 5.1265333e+00   5.9637739e+01
 5.1320000e+00   5.8612361e+01
 5.1374667e+00   5.8793237e+01
 5.1429333e+00   5.7807737e+01
 5.1484000e+00   5.7803914e+01
 5.1538667e+00   5.7389445e+01
 5.1593333e+00   5.6915237e+01
 5.1648000e+00   5.7132111e+01
 5.1702667e+00   5.6182495e+01
 5.1757333e+00   5.6331625e+01
 5.1812000e+00   5.5650476e+01
 5.1866667e+00   5.5586712e+01
 5.1921333e+00   5.5267027e+01
 5.1976000e+00   5.5120082e+01
 5.2030667e+00   5.4612042e+01
 5.2085333e+00   5.4576033e+01
 5.2140000e+00   5.4182986e+01
 5.2194667e+00   5.4154301e+01
 5.2249333e+00   5.3852221e+01
 5.2304000e+00   5.3469054e+01
 5.2358667e+00   5.3252095e+01
 5.2413333e+00   5.3091805e+01
 5.2468000e+00   5.2775387e+01
 5.2522667e+00   5.2543670e+01
 5.2577333e+00   5.2652562e+01
 5.2632000e+00   5.2016394e+01
 5.2686667e+00   5.2108383e+01
 5.2741333e+00   5.1804434e+01
 5.2796000e+00   5.1708208e+01
 5.2850667e+00   5.1522612e+01
 5.2905333e+00   5.1380549e+01
 5.2960000e+00   5.0998622e+01
 5.3014667e+00   5.1223807e+01
 5.3069333e+00   5.0916994e+01
 5.3124000e+00   5.1004136e+01
 5.3178667e+00   5.0763232e+01
 5.3233333e+00   5.0792282e+01
 5.3288000e+00   5.0421604e+01
 5.3342667e+00   5.0420792e+01
 5.3397333e+00   5.0262195e+01
 5.3452000e+00   5.0022115e+01
 5.3506667e+00   5.0225223e+01
 5.3561333e+00   4.9941976e+01
 5.3616000e+00   5.0821910e+01
 5.3670667e+00   5.0165575e+01
 5.3725333e+00   5.6412069e+01
 5.3780000e+00   5.0861184e+01
 5.3834667e+00   5.1463103e+01
 5.3889333e+00   4.9959819e+01
 5.3944000e+00   4.9416425e+01
 5.3998667e+00   4.9078296e+01
 5.4053333e+00   4.8984874e+01
 5.4108000e+00   4.8863356e+01
 5.4162667e+00   4.8728501e+01
 5.4217333e+00   4.8775101e+01
 5.4272000e+00   4.8587259e+01
 5.4326667e+00   4.8795254e+01
 5.4381333e+00   4.8410724e+01
 5.4436000e+00   4.8497531e+01
 5.4490667e+00   4.8222663e+01
 5.4545333e+00   4.8383532e+01
 5.4600000e+00   4.8073999e+01
 5.4654667e+00   4.8207472e+01
 5.4709333e+00   4.8074374e+01
 5.4764000e+00   4.7921943e+01
 5.4818667e+00   4.8070388e+01
 5.4873333e+00   4.7855903e+01
 5.4928000e+00   4.7820430e+01
 5.4982667e+00   4.7893632e+01
 5.5037333e+00   4.7881084e+01
 5.5092000e+00   4.7666248e+01
 5.5146667e+00   4.7984909e+01
 5.5201333e+00   4.7458414e+01
 5.5256000e+00   4.7865956e+01
 5.5310667e+00   4.7630623e+01
 5.5365333e+00   4.7939018e+01
 5.5420000e+00   4.7623848e+01
 5.5474667e+00   4.7893605e+01
 5.5529333e+00   4.7601736e+01
 5.5584000e+00   4.7663534e+01
 5.5638667e+00   4.7638777e+01
 5.5693333e+00   4.7891609e+01
 5.5748000e+00   4.9259916e+01
 5.5802667e+00   4.7501816e+01
 5.5857333e+00   4.8277052e+01
 5.5912000e+00   4.7695485e+01
 5.5966667e+00   4.7975225e+01
 5.6021333e+00   4.7756899e+01
 5.6076000e+00   4.7883828e+01
 5.6130667e+00   4.7682398e+01
 5.6185333e+00   4.7977988e+01
 5.6240000e+00   4.7630613e+01
 5.6294667e+00   4.8160648e+01
 5.6349333e+00   4.8047636e+01
 5.6404000e+00   4.8300888e+01
 5.6458667e+00   4.8309212e+01
 5.6513333e+00   4.8788592e+01
 5.6568000e+00   4.9065538e+01
 5.6622667e+00   4.9533906e+01
 5.6677333e+00   5.1488818e+01
 5.6732000e+00   5.1690090e+01
 5.6786667e+00   6.3578221e+01
 5.6841333e+00   6.9718400e+01
 5.6896000e+00   7.0692361e+01
 5.6950667e+00   8.0271147e+01
 5.7005333e+00   1.1892998e+02
 5.7060000e+00   1.1061654e+02
 5.7114667e+00   1.4194118e+02
 5.7169333e+00   1.4624122e+02
 5.7224000e+00   1.6104873e+02
 5.7278667e+00   1.5355070e+02
 5.7333333e+00   1.8993809e+02
 5.7388000e+00   1.6128393e+02
 5.7442667e+00   1.9770415e+02
 5.7497333e+00   1.7862239e+02
 5.7552000e+00   1.7144011e+02
 5.7606667e+00   1.8151999e+02
 5.7661333e+00   1.6552356e+02
 5.7716000e+00   1.3590417e+02
 5.7770667e+00   1.4624558e+02
 5.7825333e+00   9.5576010e+01
 5.7880000e+00   1.0629328e+02
 5.7934667e+00   7.2592146e+01
 5.7989333e+00   6.6876491e+01
 5.8044000e+00   5.5671130e+01
 5.8098667e+00   5.4309396e+01
 5.8153333e+00   4.9690867e+01
 5.8208000e+00   5.0191776e+01
 5.8262667e+00   4.7752563e+01
 5.8317333e+00   4.8534919e+01
 5.8372000e+00   4.6723299e+01
 5.8426667e+00   4.7511856e+01
 5.8481333e+00   4.6166134e+01
 5.8536000e+00   4.6689303e+01
 5.8590667e+00   4.5716369e+01
 5.8645333e+00   4.6296336e+01
 5.8700000e+00   4.4999078e+01
 5.8754667e+00   4.5648306e+01
 5.8809333e+00   4.4684949e+01
 5.8864000e+00   4.4934631e+01
 5.8918667e+00   4.4317097e+01
 5.8973333e+00   4.4504079e+01
 5.9028000e+00   4.4361445e+01
 5.9082667e+00   4.4232095e+01
 5.9137333e+00   4.3939249e+01
 5.9192000e+00   4.3593544e+01
 5.9246667e+00   4.3470141e+01
 5.9301333e+00   4.3362669e+01
 5.9356000e+00   4.2999989e+01
 5.9410667e+00   4.3067951e+01
 5.9465333e+00   4.3035131e+01
 5.9520000e+00   4.2726041e+01
 5.9574667e+00   4.2950832e+01
 5.9629333e+00   4.2730331e+01
 5.9684000e+00   4.2754087e+01
 5.9738667e+00   4.2579208e+01
 5.9793333e+00   4.2608752e+01
 5.9848000e+00   4.2429788e+01
 5.9902667e+00   4.2452797e+01
 5.9957333e+00   4.2214650e+01
 6.0012000e+00   4.2419892e+01
 6.0066667e+00   4.2388598e+01
 6.0121333e+00   4.2310336e+01
 6.0176000e+00   4.2462804e+01
 6.0230667e+00   4.2412570e+01
 6.0285333e+00   4.2339715e+01
 6.0340000e+00   4.2370209e+01
 6.0394667e+00   4.2302846e+01
 6.0449333e+00   4.2101426e+01
 6.0504000e+00   4.2347999e+01
 6.0558667e+00   4.1909553e+01
 6.0613333e+00   4.2165964e+01
 6.0668000e+00   4.2024932e+01
 6.0722667e+00   4.2030634e+01
 6.0777333e+00   4.1856560e+01
 6.0832000e+00   4.1891500e+01
 6.0886667e+00   4.1698702e+01
 6.0941333e+00   4.1679700e+01
 6.0996000e+00   4.1675475e+01
 6.1050667e+00   4.1659346e+01
 6.1105333e+00   4.1634986e+01
 6.1160000e+00   4.1667907e+01
 6.1214667e+00   4.1738697e+01
 6.1269333e+00   4.1600844e+01
 6.1324000e+00   4.1692363e+01
 6.1378667e+00   4.1506140e+01
 6.1433333e+00   4.1588465e+01
 6.1488000e+00   4.1102602e+01
 6.1542667e+00   4.1273823e+01
 6.1597333e+00   4.0765038e+01
 6.1652000e+00   4.1101584e+01
 6.1706667e+00   4.0508510e+01
 6.1761333e+00   4.1006045e+01
 6.1816000e+00   4.0514575e+01
 6.1870667e+00   4.0860261e+01
 6.1925333e+00   4.0642552e+01
 6.1980000e+00   4.0889815e+01
 6.2034667e+00   4.0703931e+01
 6.2089333e+00   4.0783564e+01
 6.2144000e+00   4.0838466e+01
 6.2198667e+00   4.0666771e+01
 6.2253333e+00   4.0818721e+01
 6.2308000e+00   4.0582975e+01
 6.2362667e+00   4.0934363e+01
 6.2417333e+00   4.0661801e+01
 6.2472000e+00   4.1024545e+01
 6.2526667e+00   4.0753222e+01
 6.2581333e+00   4.1137816e+01
 6.2636000e+00   4.0798353e+01
 6.2690667e+00   4.1108345e+01
 6.2745333e+00   4.0865000e+01
 6.2800000e+00   4.1142812e+01
 6.2854667e+00   4.0739830e+01
 6.2909333e+00   4.1025047e+01
 6.2964000e+00   4.0853097e+01
 6.3018667e+00   4.0978579e+01
 6.3073333e+00   4.0998633e+01
 6.3128000e+00   4.0992977e+01
 6.3182667e+00   4.1126337e+01
 6.3237333e+00   4.0982539e+01
 6.3292000e+00   4.1321965e+01
 6.3346667e+00   4.1267701e+01
 6.3401333e+00   4.1629458e+01
 6.3456000e+00   4.1953268e+01
 6.3510667e+00   4.3233467e+01
 6.3565333e+00   4.4585234e+01
 6.3620000e+00   4.9153775e+01
 6.3674667e+00   5.0740741e+01
 6.3729333e+00   5.8852476e+01
 6.3784000e+00   5.0093299e+01
 6.3838667e+00   6.6189624e+01
 6.3893333e+00   5.2493179e+01
 6.3948000e+00   5.6183637e+01
 6.4002667e+00   5.1969348e+01
 6.4057333e+00   5.2987296e+01
 6.4112000e+00   5.2405179e+01
 6.4166667e+00   6.3128151e+01
 6.4221333e+00   5.0840445e+01
 6.4276000e+00   4.9914940e+01
 6.4330667e+00   4.6089128e+01
 6.4385333e+00   4.2573727e+01
 6.4440000e+00   4.2503973e+01
 6.4494667e+00   4.1245502e+01
 6.4549333e+00   4.1372096e+01
 6.4604000e+00   4.0775969e+01
 6.4658667e+00   4.0775757e+01
 6.4713333e+00   4.0570319e+01
 6.4768000e+00   4.0611131e+01
 6.4822667e+00   4.0302840e+01
 6.4877333e+00   4.0543727e+01
 6.4932000e+00   4.0245155e+01
 6.4986667e+00   4.0194505e+01
 6.5041333e+00   4.0302405e+01
 6.5096000e+00   3.9977747e+01
 6.5150667e+00   4.0289421e+01
 6.5205333e+00   3.9938680e+01
 6.5260000e+00   4.0343002e+01
 6.5314667e+00   3.9781737e+01
 6.5369333e+00   4.0318371e+01
 6.5424000e+00   3.9909983e+01
 6.5478667e+00   4.0097547e+01
 6.5533333e+00   3.9815743e+01
 6.5588000e+00   4.0200394e+01
 6.5642667e+00   3.9716044e+01
 6.5697333e+00   4.0059252e+01
 6.5752000e+00   3.9670145e+01
 6.5806667e+00   4.0010947e+01
 6.5861333e+00   3.9831098e+01
 6.5916000e+00   3.9795667e+01
 6.5970667e+00   3.9781406e+01
 6.6025333e+00   3.9859122e+01
 6.6080000e+00   3.9753483e+01
 6.6134667e+00   3.9888953e+01
 6.6189333e+00   3.9802882e+01
 6.6244000e+00   3.9929089e+01
 6.6298667e+00   3.9850385e+01
 6.6353333e+00   3.9925047e+01
 6.6408000e+00   3.9929810e+01
 6.6462667e+00   3.9805163e+01
 6.6517333e+00   3.9990408e+01
 6.6572000e+00   3.9849925e+01
 6.6626667e+00   4.0056861e+01
 6.6681333e+00   3.9702904e+01
 6.6736000e+00   4.0096433e+01
 6.6790667e+00   3.9928124e+01
 6.6845333e+00   3.9984569e+01
 6.6900000e+00   4.0077674e+01
 6.6954667e+00   4.0081045e+01
 6.7009333e+00   3.9873132e+01
 6.7064000e+00   4.0135809e+01
 6.7118667e+00   3.9877686e+01
 6.7173333e+00   3.9976356e+01
 6.7228000e+00   3.9986303e+01
 6.7282667e+00   3.9872250e+01
 6.7337333e+00   4.0120954e+01
 6.7392000e+00   3.9963095e+01
 6.7446667e+00   4.0111075e+01
 6.7501333e+00   3.9820746e+01
 6.7556000e+00   4.0136079e+01
 6.7610667e+00   3.9956572e+01
 6.7665333e+00   3.9864320e+01
 6.7720000e+00   4.0448610e+01
 6.7774667e+00   3.9991630e+01
 6.7829333e+00   4.0411313e+01
 6.7884000e+00   4.0504379e+01
 6.7938667e+00   4.0191129e+01
 6.7993333e+00   4.0550538e+01
 6.8048000e+00   4.0320975e+01
 6.8102667e+00   4.0408109e+01
 6.8157333e+00   4.0539826e+01
 6.8212000e+00   4.0239019e+01
 6.8266667e+00   4.0559469e+01
 6.8321333e+00   4.0436291e+01
 6.8376000e+00   4.0495675e+01
 6.8430667e+00   4.0631762e+01
 6.8485333e+00   4.0736997e+01
 6.8540000e+00   4.0664412e+01
 6.8594667e+00   4.0690667e+01
 6.8649333e+00   4.0744092e+01
 6.8704000e+00   4.0720898e+01
 6.8758667e+00   4.0601346e+01
 6.8813333e+00   4.0600922e+01
 6.8868000e+00   4.0835929e+01
 6.8922667e+00   4.0507154e+01
 6.8977333e+00   4.0908357e+01
 6.9032000e+00   4.0571193e+01
 6.9086667e+00   4.1043437e+01
 6.9141333e+00   4.0804387e+01
 6.9196000e+00   4.0952093e+01
 6.9250667e+00   4.1043945e+01
 6.9305333e+00   4.1090544e+01
 6.9360000e+00   4.1131240e+01
 6.9414667e+00   4.1352406e+01
 6.9469333e+00   4.1175932e+01
 6.9524000e+00   4.1549208e+01
 6.9578667e+00   4.1426216e+01
 6.9633333e+00   4.1348486e+01
 6.9688000e+00   4.1684732e+01
 6.9742667e+00   4.1362783e+01
 6.9797333e+00   4.1785924e+01
 6.9852000e+00   4.1311083e+01
 6.9906667e+00   4.2030331e+01
 6.9961333e+00   4.1412067e+01
 7.0016000e+00   4.2204142e+01
 7.0070667e+00   4.1751166e+01
 7.0125333e+00   4.2205512e+01
 7.0180000e+00   4.2092775e+01
 7.0234667e+00   4.2338348e+01
 7.0289333e+00   4.1821827e+01
 7.0344000e+00   4.2429798e+01
 7.0398667e+00   4.1958330e+01
 7.0453333e+00   4.2269498e+01
 7.0508000e+00   4.2237489e+01
 7.0562667e+00   4.2427446e+01
 7.0617333e+00   4.2404953e+01
 7.0672000e+00   4.2536409e+01
 7.0726667e+00   4.2741509e+01
 7.0781333e+00   4.2697366e+01
 7.0836000e+00   4.2942392e+01
 7.0890667e+00   4.3067780e+01
 7.0945333e+00   4.3370585e+01
 7.1000000e+00   4.3276810e+01
 7.1054667e+00   4.3855023e+01
 7.1109333e+00   4.3373870e+01
 7.1164000e+00   4.3926547e+01
 7.1218667e+00   4.3659091e+01
 7.1273333e+00   4.3938894e+01
 7.1328000e+00   4.3664646e+01
 7.1382667e+00   4.3893737e+01
 7.1437333e+00   4.3539448e+01
 7.1492000e+00   4.4033855e+01
 7.1546667e+00   4.3545201e+01
 7.1601333e+00   4.4155884e+01
 7.1656000e+00   4.3901711e+01
 7.1710667e+00   4.4235233e+01
 7.1765333e+00   4.4032018e+01
 7.1820000e+00   4.4291934e+01
 7.1874667e+00   4.4309327e+01
 7.1929333e+00   4.5133001e+01
 7.1984000e+00   4.4368729e+01
 7.2038667e+00   4.4712290e+01
 7.2093333e+00   4.4390342e+01
 7.2148000e+00   4.4346985e+01
 7.2202667e+00   4.4269169e+01
 7.2257333e+00   4.4287259e+01
 7.2312000e+00   4.4512852e+01
 7.2366667e+00   4.4314355e+01
 7.2421333e+00   4.4577213e+01
 7.2476000e+00   4.4435009e+01
 7.2530667e+00   4.4803851e+01
 7.2585333e+00   4.4487518e+01
 7.2640000e+00   4.5068281e+01
 7.2694667e+00   4.4543226e+01
 7.2749333e+00   4.5100723e+01
 7.2804000e+00   4.4813941e+01
 7.2858667e+00   4.5288649e+01
 7.2913333e+00   4.4986201e+01
 7.2968000e+00   4.5153706e+01
 7.3022667e+00   4.5293521e+01
 7.3077333e+00   4.5198328e+01
 7.3132000e+00   4.5366296e+01
 7.3186667e+00   4.5307074e+01
 7.3241333e+00   4.5428404e+01
 7.3296000e+00   4.5477673e+01
 7.3350667e+00   4.5626280e+01
 7.3405333e+00   4.5630761e+01
 7.3460000e+00   4.5880373e+01
 7.3514667e+00   4.5752662e+01
 7.3569333e+00   4.6090594e+01
 7.3624000e+00   4.6138679e+01
 7.3678667e+00   4.6102001e+01
 7.3733333e+00   4.6257674e+01
 7.3788000e+00   4.6493921e+01
 7.3842667e+00   4.6408992e+01
 7.3897333e+00   4.6689777e+01
 7.3952000e+00   4.6493798e+01
 7.4006667e+00   4.6891419e+01
 7.4061333e+00   4.6814645e+01
 7.4116000e+00   4.6785217e+01
 7.4170667e+00   4.7174461e+01
 7.4225333e+00   4.7230317e+01
 7.4280000e+00   4.7185582e+01
 7.4334667e+00   4.7235910e+01
 7.4389333e+00   4.7596386e+01
 7.4444000e+00   4.7565879e+01
 7.4498667e+00   4.7737995e+01
 7.4553333e+00   4.7841409e+01
 7.4608000e+00   4.8296988e+01
 7.4662667e+00   4.7924563e+01
 7.4717333e+00   4.8131068e+01
 7.4772000e+00   4.8132645e+01
 7.4826667e+00   4.8303738e+01
 7.4881333e+00   4.8259499e+01
 7.4936000e+00   4.8605742e+01
 7.4990667e+00   4.8513480e+01
 7.5045333e+00   4.8846412e+01
 7.5100000e+00   4.8951477e+01
 7.5154667e+00   4.8936378e+01
 7.5209333e+00   4.9123583e+01
 7.5264000e+00   4.9266426e+01
 7.5318667e+00   4.9390326e+01
 7.5373333e+00   4.9473504e+01
 7.5428000e+00   4.9857861e+01
 7.5482667e+00   4.9486834e+01
 7.5537333e+00   5.0053450e+01
 7.5592000e+00   5.0069878e+01
 7.5646667e+00   5.0167200e+01
 7.5701333e+00   5.0429423e+01
 7.5756000e+00   5.0526383e+01
 7.5810667e+00   5.0884391e+01
 7.5865333e+00   5.0975384e+01
 7.5920000e+00   5.1228089e+01
 7.5974667e+00   5.1349683e+01
 7.6029333e+00   5.1456851e+01
 7.6084000e+00   5.1869935e+01
 7.6138667e+00   5.1733173e+01
 7.6193333e+00   5.2018485e+01
 7.6248000e+00   5.2129338e+01
 7.6302667e+00   5.2110900e+01
 7.6357333e+00   5.2772189e+01
 7.6412000e+00   5.2641075e+01
 7.6466667e+00   5.3269008e+01
 7.6521333e+00   5.3610912e+01
 7.6576000e+00   5.3976581e+01
 7.6630667e+00   5.3921887e+01
 7.6685333e+00   5.4816680e+01
 7.6740000e+00   5.4647568e+01
 7.6794667e+00   5.5326897e+01
 7.6849333e+00   5.5389121e+01
 7.6904000e+00   5.6606957e+01
 7.6958667e+00   5.6203556e+01
 7.7013333e+00   5.6948565e+01
 7.7068000e+00   5.7570760e+01
 7.7122667e+00   5.7499241e+01
 7.7177333e+00   5.9039651e+01
 7.7232000e+00   5.9004593e+01
 7.7286667e+00   5.9634185e+01
 7.7341333e+00   6.1373726e+01
 7.7396000e+00   6.1383799e+01
 7.7450667e+00   6.4464739e+01
 7.7505333e+00   6.7065074e+01
 7.7560000e+00   6.8583415e+01
 7.7614667e+00   7.5086704e+01
 7.7669333e+00   8.1416722e+01
 7.7724000e+00   8.3360935e+01
 7.7778667e+00   8.6451945e+01
 7.7833333e+00   9.1965564e+01
 7.7888000e+00   9.7300553e+01
 7.7942667e+00   9.6406477e+01
 7.7997333e+00   1.0470136e+02
 7.8052000e+00   1.1421021e+02
 7.8106667e+00   1.1134971e+02
 7.8161333e+00   1.2231788e+02
 7.8216000e+00   1.3226655e+02
 7.8270667e+00   1.1426242e+02
 7.8325333e+00   1.4027812e+02
 7.8380000e+00   1.1589007e+02
 7.8434667e+00   1.3391215e+02
 7.8489333e+00   1.0802012e+02
 7.8544000e+00   1.2280238e+02
 7.8598667e+00   9.0519005e+01
 7.8653333e+00   9.0367967e+01
 7.8708000e+00   7.6006894e+01
 7.8762667e+00   7.0713810e+01
 7.8817333e+00   6.6529406e+01
 7.8872000e+00   6.5568900e+01
 7.8926667e+00   6.3069072e+01
 7.8981333e+00   6.3126688e+01
 7.9036000e+00   6.2010042e+01
 7.9090667e+00   6.1052566e+01
 7.9145333e+00   6.1574729e+01
 7.9200000e+00   6.1179232e+01
 7.9254667e+00   6.0092635e+01
 7.9309333e+00   6.0568127e+01
 7.9364000e+00   5.9731822e+01
 7.9418667e+00   5.9477783e+01
 7.9473333e+00   5.9659713e+01
 7.9528000e+00   5.8299636e+01
 7.9582667e+00   5.8650071e+01
 7.9637333e+00   5.8210810e+01
 7.9692000e+00   5.7778839e+01
 7.9746667e+00   5.7573314e+01
 7.9801333e+00   5.7619730e+01
 7.9856000e+00   5.7294326e+01
 7.9910667e+00   5.6964264e+01
 7.9965333e+00   5.7292447e+01
 8.0020000e+00   5.6755741e+01
 8.0074667e+00   5.6430838e+01
 8.0129333e+00   5.6990427e+01
 8.0184000e+00   5.7050385e+01
 8.0238667e+00   5.6442580e+01
 8.0293333e+00   5.7138177e+01
 8.0348000e+00   5.6691635e+01
 8.0402667e+00   5.7164319e+01
 8.0457333e+00   5.7672882e+01
 8.0512000e+00   5.7736619e+01
 8.0566667e+00   6.0913614e+01
 8.0621333e+00   6.0982523e+01
 8.0676000e+00   7.5553150e+01
 8.0730667e+00   6.8572673e+01
 8.0785333e+00   8.4252250e+01
 8.0840000e+00   7.2295806e+01
 8.0894667e+00   9.2070874e+01
 8.0949333e+00   7.8871203e+01
 8.1004000e+00   1.1776679e+02
 8.1058667e+00   1.0906432e+02
 8.1113333e+00   1.4439859e+02
 8.1168000e+00   1.3438291e+02
 8.1222667e+00   1.3262259e+02
 8.1277333e+00   1.2150487e+02
 8.1332000e+00   1.3122305e+02
 8.1386667e+00   1.0801535e+02
 8.1441333e+00   1.1559344e+02
 8.1496000e+00   9.6422978e+01
 8.1550667e+00   1.0361798e+02
 8.1605333e+00   9.1982134e+01
 8.1660000e+00   8.6834088e+01
 8.1714667e+00   9.6251213e+01
 8.1769333e+00   8.4711601e+01
 8.1824000e+00   8.1131183e+01
 8.1878667e+00   7.3204230e+01
 8.1933333e+00   6.5902554e+01
 8.1988000e+00   5.9440186e+01
 8.2042667e+00   5.7482488e+01
 8.2097333e+00   5.6719247e+01
 8.2152000e+00   5.5729845e+01
 8.2206667e+00   5.5506191e+01
 8.2261333e+00   5.5615510e+01
 8.2316000e+00   5.4934313e+01
 8.2370667e+00   5.4919695e+01
 8.2425333e+00   5.4359631e+01
 8.2480000e+00   5.4214172e+01
 8.2534667e+00   5.3822173e+01
 8.2589333e+00   5.4185314e+01
 8.2644000e+00   5.3623886e+01
 8.2698667e+00   5.3908888e+01
 8.2753333e+00   5.3197461e+01
 8.2808000e+00   5.3660301e+01
 8.2862667e+00   5.2963582e+01
 8.2917333e+00   5.3198467e+01
 8.2972000e+00   5.2864576e+01
 8.3026667e+00   5.3071323e+01
 8.3081333e+00   5.2555796e+01
 8.3136000e+00   5.2784396e+01
 8.3190667e+00   5.2402521e+01
 8.3245333e+00   5.2498014e+01
 8.3300000e+00   5.2430949e+01
 8.3354667e+00   5.2169761e+01
 8.3409333e+00   5.2333743e+01
 8.3464000e+00   5.2057879e+01
 8.3518667e+00   5.2241800e+01
 8.3573333e+00   5.1982544e+01
 8.3628000e+00   5.2333643e+01
 8.3682667e+00   5.1885600e+01
 8.3737333e+00   5.2215952e+01
 8.3792000e+00   5.1856032e+01
 8.3846667e+00   5.2141906e+01
 8.3901333e+00   5.1541809e+01
 8.3956000e+00   5.2003931e+01
 8.4010667e+00   5.1554454e+01
 8.4065333e+00   5.1665429e+01
 8.4120000e+00   5.1533883e+01
 8.4174667e+00   5.1714799e+01
 8.4229333e+00   5.1429153e+01
 8.4284000e+00   5.1601536e+01
 8.4338667e+00   5.1385652e+01
 8.4393333e+00   5.1614778e+01
 8.4448000e+00   5.1336280e+01
 8.4502667e+00   5.1434892e+01
 8.4557333e+00   5.1531751e+01
 8.4612000e+00   5.1230218e+01
 8.4666667e+00   5.1771684e+01
 8.4721333e+00   5.1342621e+01
 8.4776000e+00   5.1885060e+01
 8.4830667e+00   5.1346217e+01
 8.4885333e+00   5.1753586e+01
 8.4940000e+00   5.1428321e+01
 8.4994667e+00   5.1767704e+01
 8.5049333e+00   5.1272429e+01
 8.5104000e+00   5.1749999e+01
 8.5158667e+00   5.1048559e+01
 8.5213333e+00   5.1556225e+01
 8.5268000e+00   5.0868980e+01
 8.5322667e+00   5.1282631e+01
 8.5377333e+00   5.0916721e+01
 8.5432000e+00   5.0887173e+01
 8.5486667e+00   5.0632465e+01
 8.5541333e+00   5.0786611e+01
 8.5596000e+00   5.0504127e+01
 8.5650667e+00   5.0648553e+01
 8.5705333e+00   5.0604236e+01
 8.5760000e+00   5.0358821e+01
 8.5814667e+00   5.0755198e+01
 8.5869333e+00   5.0150467e+01
 8.5924000e+00   5.0408387e+01
 8.5978667e+00   5.0076907e+01
 8.6033333e+00   5.0534443e+01
 8.6088000e+00   4.9992363e+01
 8.6142667e+00   5.0540259e+01
 8.6197333e+00   5.0055564e+01
 8.6252000e+00   5.0528865e+01
 8.6306667e+00   4.9779596e+01
 8.6361333e+00   5.0190363e+01
 8.6416000e+00   4.9560035e+01
 8.6470667e+00   5.0149625e+01
 8.6525333e+00   4.9569311e+01
 8.6580000e+00   4.9750919e+01
 8.6634667e+00   4.9615963e+01
 8.6689333e+00   4.9739560e+01
 8.6744000e+00   4.9248681e+01
 8.6798667e+00   4.9681608e+01
 8.6853333e+00   4.9403206e+01
 8.6908000e+00   4.9473365e+01
 8.6962667e+00   4.9477763e+01
 8.7017333e+00   4.9221054e+01
 8.7072000e+00   4.9365038e+01
 8.7126667e+00   4.9208029e+01
 8.7181333e+00   4.9310928e+01
 8.7236000e+00   4.8730206e+01
 8.7290667e+00   4.9362187e+01
 8.7345333e+00   4.8995141e+01
 8.7400000e+00   4.9226039e+01
 8.7454667e+00   4.8988822e+01
 8.7509333e+00   4.9349453e+01
 8.7564000e+00   4.8659193e+01
 8.7618667e+00   4.9154302e+01
 8.7673333e+00   4.8779297e+01
 8.7728000e+00   4.9168626e+01
 8.7782667e+00   4.8551628e+01
 8.7837333e+00   4.9096072e+01
 8.7892000e+00   4.8744932e+01
 8.7946667e+00   4.8912227e+01
 8.8001333e+00   4.8902404e+01
 8.8056000e+00   4.8878462e+01
 8.8110667e+00   4.8772833e+01
 8.8165333e+00   4.8940835e+01
 8.8220000e+00   4.8897438e+01
 8.8274667e+00   4.8540088e+01
 8.8329333e+00   4.8996693e+01
 8.8384000e+00   4.8596240e+01
 8.8438667e+00   4.8796560e+01
 8.8493333e+00   4.8429573e+01
 8.8548000e+00   4.8760938e+01
 8.8602667e+00   4.8444669e+01
 8.8657333e+00   4.8724937e+01
 8.8712000e+00   4.8168135e+01
 8.8766667e+00   4.8692591e+01
 8.8821333e+00   4.8160286e+01
 8.8876000e+00   4.8737424e+01
 8.8930667e+00   4.8216234e+01
 8.8985333e+00   4.8623279e+01
 8.9040000e+00   4.8379394e+01
 8.9094667e+00   4.8477339e+01
 8.9149333e+00   4.8487025e+01
 8.9204000e+00   4.8171482e+01
 8.9258667e+00   4.8227896e+01
 8.9313333e+00   4.8315776e+01
 8.9368000e+00   4.8128715e+01
 8.9422667e+00   4.8145281e+01
 8.9477333e+00   4.8239683e+01
 8.9532000e+00   4.8223032e+01
 8.9586667e+00   4.8242095e+01
 8.9641333e+00   4.8144338e+01
 8.9696000e+00   4.8477705e+01
 8.9750667e+00   4.7992251e+01
 8.9805333e+00   4.8171829e+01
 8.9860000e+00   4.8167715e+01
 8.9914667e+00   4.8380278e+01
 8.9969333e+00   4.8238220e+01
 9.0024000e+00   4.9070124e+01
 9.0078667e+00   4.8810024e+01
 9.0133333e+00   5.1242648e+01
 9.0188000e+00   5.0324108e+01
 9.0242667e+00   6.0696954e+01
 9.0297333e+00   5.5549694e+01
 9.0352000e+00   5.7315479e+01
 9.0406667e+00   5.7433910e+01
 9.0461333e+00   5.8002460e+01
 9.0516000e+00   5.3399799e+01
 9.0570667e+00   5.0368400e+01
 9.0625333e+00   5.1226992e+01
 9.0680000e+00   4.9052078e+01
 9.0734667e+00   4.9382047e+01
 9.0789333e+00   4.8542296e+01
 9.0844000e+00   4.8915848e+01
 9.0898667e+00   4.7686793e+01
 9.0953333e+00   4.7612349e+01
 9.1008000e+00   4.6763437e+01
 9.1062667e+00   4.7003766e+01
 9.1117333e+00   4.6660753e+01
 9.1172000e+00   4.6579003e+01
 9.1226667e+00   4.6429515e+01
 9.1281333e+00   4.6308412e+01
 9.1336000e+00   4.6172385e+01
 9.1390667e+00   4.6120344e+01
 9.1445333e+00   4.5792441e+01
 9.1500000e+00   4.5928498e+01
 9.1554667e+00   4.5763656e+01
 9.1609333e+00   4.5424159e+01
 9.1664000e+00   4.5890498e+01
 9.1718667e+00   4.5480796e+01
 9.1773333e+00   4.5501374e+01
 9.1828000e+00   4.5418000e+01
 9.1882667e+00   4.5451597e+01
 9.1937333e+00   4.5309834e+01
 9.1992000e+00   4.5317294e+01
 9.2046667e+00   4.4930381e+01
 9.2101333e+00   4.5291744e+01
 9.2156000e+00   4.4823593e+01
 9.2210667e+00   4.5159938e+01
 9.2265333e+00   4.4747836e+01
 9.2320000e+00   4.5255297e+01
 9.2374667e+00   4.4684527e+01
 9.2429333e+00   4.4986982e+01
 9.2484000e+00   4.4799133e+01
 9.2538667e+00   4.4926183e+01
 9.2593333e+00   4.4667652e+01
 9.2648000e+00   4.4952519e+01
 9.2702667e+00   4.4861487e+01
 9.2757333e+00   4.5052028e+01
 9.2812000e+00   4.5118157e+01
 9.2866667e+00   4.4688336e+01
 9.2921333e+00   4.4853144e+01
 9.2976000e+00   4.4481146e+01
 9.3030667e+00   4.4758951e+01
 9.3085333e+00   4.4486836e+01
 9.3140000e+00   4.4684236e+01
 9.3194667e+00   4.4262531e+01
 9.3249333e+00   4.4661342e+01
 9.3304000e+00   4.4163205e+01
 9.3358667e+00   4.4431651e+01
 9.3413333e+00   4.4103038e+01
 9.3468000e+00   4.4246593e+01
 9.3522667e+00   4.4061686e+01
 9.3577333e+00   4.4440862e+01
 9.3632000e+00   4.3809915e+01
 9.3686667e+00   4.4347363e+01
 9.3741333e+00   4.4037584e+01
 9.3796000e+00   4.4113408e+01
 9.3850667e+00   4.3997590e+01
 9.3905333e+00   4.4212178e+01
 9.3960000e+00   4.4025329e+01
 9.4014667e+00   4.4282910e+01
 9.4069333e+00   4.4090860e+01
 9.4124000e+00   4.4362867e+01
 9.4178667e+00   4.4245758e+01
 9.4233333e+00   4.4336265e+01
 9.4288000e+00   4.4576256e+01
 9.4342667e+00   4.4522081e+01
 9.4397333e+00   4.4782751e+01
 9.4452000e+00   4.4776184e+01
 9.4506667e+00   4.5032546e+01
 9.4561333e+00   4.5201161e+01
 9.4616000e+00   4.6865018e+01
 9.4670667e+00   4.6010037e+01
 9.4725333e+00   5.7430347e+01
 9.4780000e+00   5.2001268e+01
 9.4834667e+00   6.0267151e+01
 9.4889333e+00   7.2685557e+01
 9.4944000e+00   6.6201158e+01
 9.4998667e+00   9.5596986e+01
 9.5053333e+00   8.7165069e+01
 9.5108000e+00   9.8635268e+01
 9.5162667e+00   8.6436692e+01
 9.5217333e+00   8.0850967e+01
 9.5272000e+00   8.7221094e+01
 9.5326667e+00   7.9243318e+01
 9.5381333e+00   8.2427468e+01
 9.5436000e+00   8.0657275e+01
 9.5490667e+00   8.9946812e+01
 9.5545333e+00   1.0750032e+02
 9.5600000e+00   1.1005434e+02
 9.5654667e+00   1.0369902e+02
 9.5709333e+00   1.0224820e+02
 9.5764000e+00   9.3637925e+01
 9.5818667e+00   8.4090814e+01
 9.5873333e+00   6.4350900e+01
 9.5928000e+00   5.5422208e+01
 9.5982667e+00   5.0260322e+01
 9.6037333e+00   4.6005714e+01
 9.6092000e+00   4.4959493e+01
 9.6146667e+00   4.3904509e+01
 9.6201333e+00   4.3418967e+01
 9.6256000e+00   4.3097418e+01
 9.6310667e+00   4.2983208e+01
 9.6365333e+00   4.2308031e+01
 9.6420000e+00   4.2409872e+01
 9.6474667e+00   4.2180382e+01
 9.6529333e+00   4.2254833e+01
 9.6584000e+00   4.1953174e+01
 9.6638667e+00   4.1987269e+01
 9.6693333e+00   4.1914865e+01
 9.6748000e+00   4.1719515e+01
 9.6802667e+00   4.1863316e+01
 9.6857333e+00   4.1840898e+01
 9.6912000e+00   4.1610288e+01
 9.6966667e+00   4.1580841e+01
 9.7021333e+00   4.1594500e+01
 9.7076000e+00   4.1402431e+01
 9.7130667e+00   4.1555009e+01
 9.7185333e+00   4.1005010e+01
 9.7240000e+00   4.1534329e+01
 9.7294667e+00   4.1111173e+01
 9.7349333e+00   4.1359763e+01
 9.7404000e+00   4.0829425e+01
 9.7458667e+00   4.1591330e+01
 9.7513333e+00   4.0686525e+01
 9.7568000e+00   4.1101059e+01
 9.7622667e+00   4.0347638e+01
 9.7677333e+00   4.0817957e+01
 9.7732000e+00   4.0135612e+01
 9.7786667e+00   4.0685189e+01
 9.7841333e+00   4.0058949e+01
 9.7896000e+00   4.0450891e+01
 9.7950667e+00   4.0204370e+01
 9.8005333e+00   4.0266044e+01
 9.8060000e+00   4.0081003e+01
 9.8114667e+00   4.0519204e+01
 9.8169333e+00   3.9989637e+01
 9.8224000e+00   4.0597752e+01
 9.8278667e+00   3.9932654e+01
 9.8333333e+00   4.0653000e+01
 9.8388000e+00   4.0243120e+01
 9.8442667e+00   4.0430187e+01
 9.8497333e+00   4.0299575e+01
 9.8552000e+00   4.0618329e+01
 9.8606667e+00   4.0387887e+01
 9.8661333e+00   4.0723037e+01
 9.8716000e+00   4.0450752e+01
 9.8770667e+00   4.0803020e+01
 9.8825333e+00   4.0746101e+01
 9.8880000e+00   4.1126641e+01
 9.8934667e+00   4.1251416e+01
 9.8989333e+00   4.1341156e+01
 9.9044000e+00   4.1990761e+01
 9.9098667e+00   4.2679300e+01
 9.9153333e+00   4.4830461e+01
 9.9208000e+00   4.8401922e+01
 9.9262667e+00   5.0927309e+01
 9.9317333e+00   5.2662633e+01
 9.9372000e+00   6.1720530e+01
 9.9426667e+00   7.2033945e+01
 9.9481333e+00   5.9910494e+01
 9.9536000e+00   8.1180100e+01
 9.9590667e+00   6.5864588e+01
 9.9645333e+00   6.9895477e+01
 9.9700000e+00   7.0629788e+01
 9.9754667e+00   6.3076783e+01
 9.9809333e+00   7.0468869e+01
 9.9864000e+00   7.4054532e+01
 9.9918667e+00   6.4848454e+01
 9.9973333e+00   6.6923889e+01
 1.0002800e+01   5.2871579e+01
 1.0008267e+01   4.5670609e+01
 1.0013733e+01   4.5940099e+01
 1.0019200e+01   4.3766386e+01
 1.0024667e+01   4.2298577e+01
 1.0030133e+01   4.1591068e+01
 1.0035600e+01   4.2085265e+01
 1.0041067e+01   4.1630164e+01
 1.0046533e+01   4.1091171e+01
 1.0052000e+01   4.2244677e+01
 1.0057467e+01   4.2948142e+01
 1.0062933e+01   4.0839503e+01
 1.0068400e+01   4.5659711e+01
 1.0073867e+01   5.2489206e+01
 1.0079333e+01   4.2736751e+01
 1.0084800e+01   6.0361378e+01
 1.0090267e+01   6.9544973e+01
 1.0095733e+01   5.3323174e+01
 1.0101200e+01   7.5143541e+01
 1.0106667e+01   7.9501677e+01
 1.0112133e+01   7.0833468e+01
 1.0117600e+01   7.8520817e+01
 1.0123067e+01   7.7671566e+01
 1.0128533e+01   5.9304123e+01
 1.0134000e+01   5.8820627e+01
 1.0139467e+01   5.0088349e+01
 1.0144933e+01   4.4334260e+01
 1.0150400e+01   4.2792058e+01
 1.0155867e+01   4.1758462e+01
 1.0161333e+01   4.0132254e+01
 1.0166800e+01   4.0434424e+01
 1.0172267e+01   4.0058373e+01
 1.0177733e+01   3.9299602e+01
 1.0183200e+01   3.9532317e+01
 1.0188667e+01   3.9238771e+01
 1.0194133e+01   3.8853130e+01
 1.0199600e+01   3.8902673e+01
 1.0205067e+01   3.8624357e+01
 1.0210533e+01   3.8646831e+01
 1.0216000e+01   3.8304258e+01
 1.0221467e+01   3.8511154e+01
 1.0226933e+01   3.8268460e+01
 1.0232400e+01   3.8169611e+01
 1.0237867e+01   3.8208167e+01
 1.0243333e+01   3.8339194e+01
 1.0248800e+01   3.8047884e+01
 1.0254267e+01   3.8176217e+01
 1.0259733e+01   3.7990529e+01
 1.0265200e+01   3.7885656e+01
 1.0270667e+01   3.7616978e+01
 1.0276133e+01   3.7724857e+01
 1.0281600e+01   3.7241235e+01
 1.0287067e+01   3.7664860e+01
 1.0292533e+01   3.7559926e+01
 1.0298000e+01   3.7474011e+01
 1.0303467e+01   3.7377602e+01
 1.0308933e+01   3.7629121e+01
 1.0314400e+01   3.7063834e+01
 1.0319867e+01   3.7339300e+01
 1.0325333e+01   3.7116817e+01
 1.0330800e+01   3.7350626e+01
 1.0336267e+01   3.7170184e+01
 1.0341733e+01   3.7156248e+01
 1.0347200e+01   3.7087365e+01
 1.0352667e+01   3.7165174e+01
 1.0358133e+01   3.6955617e+01
 1.0363600e+01   3.7031174e+01
 1.0369067e+01   3.6815295e+01
 1.0374533e+01   3.7054017e+01
 1.0380000e+01   3.6780952e+01
 1.0385467e+01   3.6988727e+01
 1.0390933e+01   3.6722741e+01
 1.0396400e+01   3.6958856e+01
 1.0401867e+01   3.6661140e+01
 1.0407333e+01   3.6744950e+01
 1.0412800e+01   3.6485182e+01
 1.0418267e+01   3.6502563e+01
 1.0423733e+01   3.6517780e+01
 1.0429200e+01   3.6446837e+01
 1.0434667e+01   3.6596514e+01
 1.0440133e+01   3.6651624e+01
 1.0445600e+01   3.6492074e+01
 1.0451067e+01   3.7463012e+01
 1.0456533e+01   3.6386848e+01
 1.0462000e+01   3.6570978e+01
 1.0467467e+01   3.6201617e+01
 1.0472933e+01   3.6323420e+01
 1.0478400e+01   3.6275128e+01
 1.0483867e+01   3.6283057e+01
 1.0489333e+01   3.6191629e+01
 1.0494800e+01   3.6300525e+01
 1.0500267e+01   3.6124183e+01
 1.0505733e+01   3.6252174e+01
 1.0511200e+01   3.6127820e+01
 1.0516667e+01   3.6328276e+01
 1.0522133e+01   3.6109914e+01
 1.0527600e+01   3.6035101e+01
 1.0533067e+01   3.6092207e+01
 1.0538533e+01   3.5893554e+01
 1.0544000e+01   3.6080610e+01
 1.0549467e+01   3.5915671e+01
 1.0554933e+01   3.5953359e+01
 1.0560400e+01   3.5871057e+01
 1.0565867e+01   3.5937944e+01
 1.0571333e+01   3.5889544e+01
 1.0576800e+01   3.5907528e+01
 1.0582267e+01   3.5957078e+01
 1.0587733e+01   3.6041626e+01
 1.0593200e+01   3.5860187e+01
 1.0598667e+01   3.5955801e+01
 1.0604133e+01   3.5790523e+01
 1.0609600e+01   3.5965182e+01
 1.0615067e+01   3.5915753e+01
 1.0620533e+01   3.5967593e+01
 1.0626000e+01   3.5964531e+01
 1.0631467e+01   3.6058047e+01
 1.0636933e+01   3.5877437e+01
 1.0642400e+01   3.6104838e+01
 1.0647867e+01   3.5778548e+01
 1.0653333e+01   3.5873085e+01
 1.0658800e+01   3.5826409e+01
 1.0664267e+01   3.5939042e+01
 1.0669733e+01   3.5773655e+01
 1.0675200e+01   3.5765568e+01
 1.0680667e+01   3.5798698e+01
 1.0686133e+01   3.5822890e+01
 1.0691600e+01   3.5948087e+01
 1.0697067e+01   3.5780714e+01
 1.0702533e+01   3.5892230e+01
 1.0708000e+01   3.6015535e+01
 1.0713467e+01   3.5877311e+01
 1.0718933e+01   3.6117505e+01
 1.0724400e+01   3.5896968e+01
 1.0729867e+01   3.5880786e+01
 1.0735333e+01   3.5888534e+01
 1.0740800e+01   3.5845981e+01
 1.0746267e+01   3.6031476e+01
 1.0751733e+01   3.6014243e+01
 1.0757200e+01   3.5828346e+01
 1.0762667e+01   3.6195706e+01
 1.0768133e+01   3.5847850e+01
 1.0773600e+01   3.6007877e+01
 1.0779067e+01   3.6050093e+01
 1.0784533e+01   3.5745180e+01
 1.0790000e+01   3.5921300e+01
 1.0795467e+01   3.5763229e+01
 1.0800933e+01   3.5681964e+01
 1.0806400e+01   3.5811481e+01
 1.0811867e+01   3.5623923e+01
 1.0817333e+01   3.5874638e+01
 1.0822800e+01   3.5683368e+01
 1.0828267e+01   3.5841179e+01
 1.0833733e+01   3.5709830e+01
 1.0839200e+01   3.5618461e+01
 1.0844667e+01   3.5738832e+01
 1.0850133e+01   3.5743668e+01
 1.0855600e+01   3.5633725e+01
 1.0861067e+01   3.5770259e+01
 1.0866533e+01   3.5627376e+01
 1.0872000e+01   3.5674920e+01
 1.0877467e+01   3.5646356e+01
 1.0882933e+01   3.5760817e+01
 1.0888400e+01   3.5846472e+01
 1.0893867e+01   3.5716599e+01
 1.0899333e+01   3.5890491e+01
 1.0904800e+01   3.5649236e+01
 1.0910267e+01   3.5927817e+01
 1.0915733e+01   3.5902612e+01
 1.0921200e+01   3.5771216e+01
 1.0926667e+01   3.5792654e+01
 1.0932133e+01   3.5807159e+01
 1.0937600e+01   3.5713064e+01
 1.0943067e+01   3.5912986e+01
 1.0948533e+01   3.5688955e+01
 1.0954000e+01   3.5956448e+01
 1.0959467e+01   3.5835168e+01
 1.0964933e+01   3.5968779e+01
 1.0970400e+01   3.5695017e+01
 1.0975867e+01   3.5993148e+01
 1.0981333e+01   3.5989512e+01
 1.0986800e+01   3.5955894e+01
 1.0992267e+01   3.6020544e+01
 1.0997733e+01   3.6195428e+01
 1.1003200e+01   3.5968870e+01
 1.1008667e+01   3.6146841e+01
 1.1014133e+01   3.5951025e+01
 1.1019600e+01   3.6040582e+01
 1.1025067e+01   3.5964262e+01
 1.1030533e+01   3.6255926e+01
 1.1036000e+01   3.6115683e+01
 1.1041467e+01   3.6256960e+01
 1.1046933e+01   3.6391543e+01
 1.1052400e+01   3.6227634e+01
 1.1057867e+01   3.6640244e+01
 1.1063333e+01   3.6564475e+01
 1.1068800e+01   3.6561920e+01
 1.1074267e+01   3.6754982e+01
 1.1079733e+01   3.6601851e+01
 1.1085200e+01   3.6760638e+01
 1.1090667e+01   3.6608761e+01
 1.1096133e+01   3.6855976e+01
 1.1101600e+01   3.6755660e+01
 1.1107067e+01   3.6872255e+01
 1.1112533e+01   3.6571932e+01
 1.1118000e+01   3.6890394e+01
 1.1123467e+01   3.6281696e+01
 1.1128933e+01   3.6787369e+01
 1.1134400e+01   3.6264114e+01
 1.1139867e+01   3.6435011e+01
 1.1145333e+01   3.6321274e+01
 1.1150800e+01   3.6355323e+01
 1.1156267e+01   3.6281468e+01
 1.1161733e+01   3.6339941e+01
 1.1167200e+01   3.6307379e+01
 1.1172667e+01   3.6227002e+01
 1.1178133e+01   3.6361998e+01
 1.1183600e+01   3.6108178e+01
 1.1189067e+01   3.6195494e+01
 1.1194533e+01   3.6151721e+01
