PWDR ff_004765_sum_norm_dc_0.tif Azm= 352.fxye Bank 1
2-Theta Angle (Degrees)
Intensity
       1500
 3.0000000e+00   4.4906058e+01
 3.0054667e+00   4.4633367e+01
 3.0109333e+00   4.4562813e+01
 3.0164000e+00   4.4427589e+01
 3.0218667e+00   4.4349821e+01
 3.0273333e+00   4.3900967e+01
 3.0328000e+00   4.4233700e+01
 3.0382667e+00   4.3769184e+01
 3.0437333e+00   4.3558499e+01
 3.0492000e+00   4.3682411e+01
 3.0546667e+00   4.3536284e+01
 3.0601333e+00   4.3122657e+01
 3.0656000e+00   4.3080031e+01
 3.0710667e+00   4.2625150e+01
 3.0765333e+00   4.2372447e+01
 3.0820000e+00   4.2143868e+01
 3.0874667e+00   4.1768276e+01
 3.0929333e+00   4.1451669e+01
 3.0984000e+00   4.1251008e+01
 3.1038667e+00   4.1013973e+01
 3.1093333e+00   4.0761095e+01
 3.1148000e+00   4.0473950e+01
 3.1202667e+00   4.0471787e+01
 3.1257333e+00   4.0245173e+01
 3.1312000e+00   4.0115581e+01
 3.1366667e+00   3.9937304e+01
 3.1421333e+00   3.9899534e+01
 3.1476000e+00   3.9661095e+01
 3.1530667e+00   3.9652017e+01
 3.1585333e+00   3.9324745e+01
 3.1640000e+00   3.9166543e+01
 3.1694667e+00   3.9102962e+01
 3.1749333e+00   3.8715656e+01
 3.1804000e+00   3.8774982e+01
 3.1858667e+00   3.8503334e+01
 3.1913333e+00   3.8574385e+01
 3.1968000e+00   3.8229381e+01
 3.2022667e+00   3.8313384e+01
 3.2077333e+00   3.8203285e+01
 3.2132000e+00   3.8013371e+01
 3.2186667e+00   3.8038146e+01
 3.2241333e+00   3.8011936e+01
 3.2296000e+00   3.7760565e+01
 3.2350667e+00   3.7803803e+01
 3.2405333e+00   3.7629785e+01
 3.2460000e+00   3.7525090e+01
 3.2514667e+00   3.7323745e+01
 3.2569333e+00   3.7193598e+01
 3.2624000e+00   3.7042028e+01
 3.2678667e+00   3.6802261e+01
 3.2733333e+00   3.6733859e+01
 3.2788000e+00   3.6469709e+01
 3.2842667e+00   3.6524758e+01
 3.2897333e+00   3.6238279e+01
 3.2952000e+00   3.6248685e+01
 3.3006667e+00   3.5983524e+01
 3.3061333e+00   3.5941921e+01
 3.3116000e+00   3.5740661e+01
 3.3170667e+00   3.5790082e+01
 3.3225333e+00   3.5466487e+01
 3.3280000e+00   3.5631294e+01
 3.3334667e+00   3.5349926e+01
 3.3389333e+00   3.5300330e+01
 3.3444000e+00   3.5236116e+01
 3.3498667e+00   3.5098875e+01
 3.3553333e+00   3.5079659e+01
 3.3608000e+00   3.5000335e+01
 3.3662667e+00   3.4983646e+01
 3.3717333e+00   3.4723451e+01
 3.3772000e+00   3.4840943e+01
 3.3826667e+00   3.4614152e+01
 3.3881333e+00   3.4560883e+01
 3.3936000e+00   3.4451614e+01
 3.3990667e+00   3.4428212e+01
 3.4045333e+00   3.4273249e+01
 3.4100000e+00   3.4322577e+01
 3.4154667e+00   3.4135689e+01
 3.4209333e+00   3.4135938e+01
 3.4264000e+00   3.4120826e+01
 3.4318667e+00   3.3988298e+01
 3.4373333e+00   3.3963104e+01
 3.4428000e+00   3.3927187e+01
 3.4482667e+00   3.3874183e+01
 3.4537333e+00   3.3824055e+01
 3.4592000e+00   3.3715769e+01
 3.4646667e+00   3.3608238e+01
 3.4701333e+00   3.3528158e+01
 3.4756000e+00   3.3380810e+01
 3.4810667e+00   3.3381462e+01
 3.4865333e+00   3.3282792e+01
 3.4920000e+00   3.3231568e+01
 3.4974667e+00   3.3193995e+01
 3.5029333e+00   3.3137153e+01
 3.5084000e+00   3.3199378e+01
 3.5138667e+00   3.3170435e+01
 3.5193333e+00   3.3111593e+01
 3.5248000e+00   3.3160086e+01
 3.5302667e+00   3.3122870e+01
 3.5357333e+00   3.2942520e+01
 3.5412000e+00   3.2983002e+01
 3.5466667e+00   3.2903305e+01
 3.5521333e+00   3.2947990e+01
 3.5576000e+00   3.2930418e+01
 3.5630667e+00   3.2998443e+01
 3.5685333e+00   3.3143893e+01
 3.5740000e+00   3.3371417e+01
 3.5794667e+00   3.3476968e+01
 3.5849333e+00   3.3384043e+01
 3.5904000e+00   3.3200818e+01
 3.5958667e+00   3.3108597e+01
 3.6013333e+00   3.3114494e+01
 3.6068000e+00   3.2851790e+01
 3.6122667e+00   3.2825732e+01
 3.6177333e+00   3.2615478e+01
 3.6232000e+00   3.2618413e+01
 3.6286667e+00   3.2353083e+01
 3.6341333e+00   3.2419496e+01
 3.6396000e+00   3.2370453e+01
 3.6450667e+00   3.2271138e+01
 3.6505333e+00   3.2251377e+01
 3.6560000e+00   3.2224063e+01
 3.6614667e+00   3.2162231e+01
 3.6669333e+00   3.2192968e+01
 3.6724000e+00   3.2131617e+01
 3.6778667e+00   3.2078001e+01
 3.6833333e+00   3.2139615e+01
 3.6888000e+00   3.2076042e+01
 3.6942667e+00   3.2068416e+01
 3.6997333e+00   3.2002807e+01
 3.7052000e+00   3.2067937e+01
 3.7106667e+00   3.1973341e+01
 3.7161333e+00   3.2021737e+01
 3.7216000e+00   3.1987219e+01
 3.7270667e+00   3.1860972e+01
 3.7325333e+00   3.1905381e+01
 3.7380000e+00   3.1866802e+01
 3.7434667e+00   3.1823593e+01
 3.7489333e+00   3.1880169e+01
 3.7544000e+00   3.1862619e+01
 3.7598667e+00   3.1833393e+01
 3.7653333e+00   3.1853436e+01
 3.7708000e+00   3.1827400e+01
 3.7762667e+00   3.1910990e+01
 3.7817333e+00   3.1754572e+01
 3.7872000e+00   3.1827673e+01
 3.7926667e+00   3.1726860e+01
 3.7981333e+00   3.1795774e+01
 3.8036000e+00   3.1744494e+01
 3.8090667e+00   3.1858670e+01
 3.8145333e+00   3.1644011e+01
 3.8200000e+00   3.1785890e+01
 3.8254667e+00   3.1811036e+01
 3.8309333e+00   3.1854679e+01
 3.8364000e+00   3.1789226e+01
 3.8418667e+00   3.1812410e+01
 3.8473333e+00   3.1900269e+01
 3.8528000e+00   3.1837897e+01
 3.8582667e+00   3.2006296e+01
 3.8637333e+00   3.2058963e+01
 3.8692000e+00   3.2541420e+01
 3.8746667e+00   3.2390436e+01
 3.8801333e+00   3.2220675e+01
 3.8856000e+00   3.2233345e+01
 3.8910667e+00   3.2186030e+01
 3.8965333e+00   3.2168768e+01
 3.9020000e+00   3.2186502e+01
 3.9074667e+00   3.2253812e+01
 3.9129333e+00   3.2261267e+01
 3.9184000e+00   3.2315717e+01
 3.9238667e+00   3.2418588e+01
 3.9293333e+00   3.2551017e+01
 3.9348000e+00   3.2746066e+01
 3.9402667e+00   3.3130014e+01
 3.9457333e+00   3.3294844e+01
 3.9512000e+00   3.3608100e+01
 3.9566667e+00   3.3565140e+01
 3.9621333e+00   3.3514172e+01
 3.9676000e+00   3.3329764e+01
 3.9730667e+00   3.3301732e+01
 3.9785333e+00   3.3205981e+01
 3.9840000e+00   3.3129220e+01
 3.9894667e+00   3.2961845e+01
 3.9949333e+00   3.3078968e+01
 4.0004000e+00   3.2844607e+01
 4.0058667e+00   3.3005573e+01
 4.0113333e+00   3.2915057e+01
 4.0168000e+00   3.2980386e+01
 4.0222667e+00   3.2960798e+01
 4.0277333e+00   3.3046193e+01
 4.0332000e+00   3.3065061e+01
 4.0386667e+00   3.3033115e+01
 4.0441333e+00   3.3280868e+01
 4.0496000e+00   3.3210595e+01
 4.0550667e+00   3.3612578e+01
 4.0605333e+00   3.3877502e+01
 4.0660000e+00   3.3777471e+01
 4.0714667e+00   3.4181092e+01
 4.0769333e+00   3.4622863e+01
 4.0824000e+00   3.5130648e+01
 4.0878667e+00   3.6667906e+01
 4.0933333e+00   3.8633708e+01
 4.0988000e+00   4.4209792e+01
 4.1042667e+00   5.0474494e+01
 4.1097333e+00   6.1918725e+01
 4.1152000e+00   8.2437375e+01
 4.1206667e+00   1.1500101e+02
 4.1261333e+00   1.5484248e+02
 4.1316000e+00   2.0822422e+02
 4.1370667e+00   2.3019860e+02
 4.1425333e+00   2.4418709e+02
 4.1480000e+00   2.3420353e+02
 4.1534667e+00   2.1926486e+02
 4.1589333e+00   2.0660289e+02
 4.1644000e+00   1.7751589e+02
 4.1698667e+00   1.9954109e+02
 4.1753333e+00   1.8130601e+02
 4.1808000e+00   1.3377423e+02
 4.1862667e+00   1.3340157e+02
 4.1917333e+00   9.9638907e+01
 4.1972000e+00   7.3467024e+01
 4.2026667e+00   5.4386652e+01
 4.2081333e+00   4.5886318e+01
 4.2136000e+00   3.9600531e+01
 4.2190667e+00   3.7732813e+01
 4.2245333e+00   3.6477923e+01
 4.2300000e+00   3.5925660e+01
 4.2354667e+00   3.5724594e+01
 4.2409333e+00   3.5564801e+01
 4.2464000e+00   3.5328992e+01
 4.2518667e+00   3.5267888e+01
 4.2573333e+00   3.5033413e+01
 4.2628000e+00   3.4806449e+01
 4.2682667e+00   3.4752382e+01
 4.2737333e+00   3.4515588e+01
 4.2792000e+00   3.4457703e+01
 4.2846667e+00   3.4551274e+01
 4.2901333e+00   3.4477860e+01
 4.2956000e+00   3.4478561e+01
 4.3010667e+00   3.4522728e+01
 4.3065333e+00   3.4347723e+01
 4.3120000e+00   3.4387706e+01
 4.3174667e+00   3.4223592e+01
 4.3229333e+00   3.4260153e+01
 4.3284000e+00   3.4016034e+01
 4.3338667e+00   3.4254395e+01
 4.3393333e+00   3.4004627e+01
 4.3448000e+00   3.4189103e+01
 4.3502667e+00   3.4056368e+01
 4.3557333e+00   3.4308714e+01
 4.3612000e+00   3.4152356e+01
 4.3666667e+00   3.4446803e+01
 4.3721333e+00   3.4336163e+01
 4.3776000e+00   3.4607276e+01
 4.3830667e+00   3.4554194e+01
 4.3885333e+00   3.4767566e+01
 4.3940000e+00   3.4944174e+01
 4.3994667e+00   3.4965924e+01
 4.4049333e+00   3.5347022e+01
 4.4104000e+00   3.5321189e+01
 4.4158667e+00   3.6525432e+01
 4.4213333e+00   3.6607476e+01
 4.4268000e+00   3.8374397e+01
 4.4322667e+00   3.9270486e+01
 4.4377333e+00   4.3985872e+01
 4.4432000e+00   5.1683242e+01
 4.4486667e+00   6.8031649e+01
 4.4541333e+00   8.8794431e+01
 4.4596000e+00   1.1283303e+02
 4.4650667e+00   1.4226025e+02
 4.4705333e+00   1.8332904e+02
 4.4760000e+00   2.3150952e+02
 4.4814667e+00   2.2656188e+02
 4.4869333e+00   2.8216317e+02
 4.4924000e+00   2.6188131e+02
 4.4978667e+00   3.0154823e+02
 4.5033333e+00   2.8393341e+02
 4.5088000e+00   4.2313052e+02
 4.5142667e+00   2.6578133e+02
 4.5197333e+00   3.7403536e+02
 4.5252000e+00   1.4316983e+02
 4.5306667e+00   2.6265481e+02
 4.5361333e+00   8.5786016e+01
 4.5416000e+00   1.2228975e+02
 4.5470667e+00   6.1361538e+01
 4.5525333e+00   6.8508653e+01
 4.5580000e+00   6.3348276e+01
 4.5634667e+00   7.0507086e+01
 4.5689333e+00   7.9674775e+01
 4.5744000e+00   9.2370406e+01
 4.5798667e+00   9.5448215e+01
 4.5853333e+00   1.1213283e+02
 4.5908000e+00   1.2273892e+02
 4.5962667e+00   1.1849451e+02
 4.6017333e+00   1.4696300e+02
 4.6072000e+00   1.3497943e+02
 4.6126667e+00   1.6735069e+02
 4.6181333e+00   1.3198669e+02
 4.6236000e+00   1.6963323e+02
 4.6290667e+00   1.1292978e+02
 4.6345333e+00   1.4031135e+02
 4.6400000e+00   9.2006389e+01
 4.6454667e+00   9.5585505e+01
 4.6509333e+00   8.0849724e+01
 4.6564000e+00   7.5004751e+01
 4.6618667e+00   8.1216066e+01
 4.6673333e+00   8.6684444e+01
 4.6728000e+00   1.2786881e+02
 4.6782667e+00   1.5881318e+02
 4.6837333e+00   2.7478308e+02
 4.6892000e+00   3.5947589e+02
 4.6946667e+00   5.0439224e+02
 4.7001333e+00   6.4681588e+02
 4.7056000e+00   7.6393702e+02
 4.7110667e+00   8.5728059e+02
 4.7165333e+00   1.0346707e+03
 4.7220000e+00   1.0481510e+03
 4.7274667e+00   1.1984248e+03
 4.7329333e+00   9.5362291e+02
 4.7384000e+00   9.8019900e+02
 4.7438667e+00   7.3219863e+02
 4.7493333e+00   5.3180647e+02
 4.7548000e+00   4.3789665e+02
 4.7602667e+00   2.1848853e+02
 4.7657333e+00   2.5319752e+02
 4.7712000e+00   1.1351689e+02
 4.7766667e+00   1.0446773e+02
 4.7821333e+00   5.8171569e+01
 4.7876000e+00   5.7613123e+01
 4.7930667e+00   4.5004811e+01
 4.7985333e+00   4.5359196e+01
 4.8040000e+00   4.1636951e+01
 4.8094667e+00   4.1877865e+01
 4.8149333e+00   4.0300657e+01
 4.8204000e+00   4.0621942e+01
 4.8258667e+00   3.9681165e+01
 4.8313333e+00   4.0226015e+01
 4.8368000e+00   4.0164366e+01
 4.8422667e+00   3.8748284e+01
 4.8477333e+00   4.0387019e+01
 4.8532000e+00   3.9015882e+01
 4.8586667e+00   3.9779630e+01
 4.8641333e+00   3.8514512e+01
 4.8696000e+00   3.9048272e+01
 4.8750667e+00   3.8031959e+01
 4.8805333e+00   3.8411392e+01
 4.8860000e+00   3.8197920e+01
 4.8914667e+00   3.7835501e+01
 4.8969333e+00   3.7970050e+01
 4.9024000e+00   3.7875352e+01
 4.9078667e+00   3.7878863e+01
 4.9133333e+00   3.8095040e+01
 4.9188000e+00   3.8304696e+01
 4.9242667e+00   3.8056502e+01
 4.9297333e+00   3.8712174e+01
 4.9352000e+00   3.8539610e+01
 4.9406667e+00   3.8996739e+01
 4.9461333e+00   3.9217388e+01
 4.9516000e+00   3.9717444e+01
 4.9570667e+00   3.9768695e+01
 4.9625333e+00   4.0993169e+01
 4.9680000e+00   4.1174037e+01
 4.9734667e+00   4.2003081e+01
 4.9789333e+00   4.3124219e+01
 4.9844000e+00   4.5768388e+01
 4.9898667e+00   4.8098148e+01
 4.9953333e+00   5.4813881e+01
 5.0008000e+00   6.3606912e+01
 5.0062667e+00   1.0007711e+02
 5.0117333e+00   1.0964902e+02
 5.0172000e+00   1.3415728e+02
 5.0226667e+00   1.5888596e+02
 5.0281333e+00   2.0257097e+02
 5.0336000e+00   2.7091582e+02
 5.0390667e+00   3.7887617e+02
 5.0445333e+00   3.9003436e+02
 5.0500000e+00   5.2664554e+02
 5.0554667e+00   4.6668863e+02
 5.0609333e+00   4.7526415e+02
 5.0664000e+00   4.4793755e+02
 5.0718667e+00   4.4807953e+02
 5.0773333e+00   3.8961568e+02
 5.0828000e+00   3.5507581e+02
 5.0882667e+00   3.0292936e+02
 5.0937333e+00   2.8264324e+02
 5.0992000e+00   2.0914615e+02
 5.1046667e+00   1.6148092e+02
 5.1101333e+00   1.5161831e+02
 5.1156000e+00   1.0505376e+02
 5.1210667e+00   7.4170276e+01
 5.1265333e+00   5.9235446e+01
 5.1320000e+00   5.0207159e+01
 5.1374667e+00   4.6318530e+01
 5.1429333e+00   4.5179104e+01
 5.1484000e+00   4.3976901e+01
 5.1538667e+00   4.4143407e+01
 5.1593333e+00   4.3840607e+01
 5.1648000e+00   4.4474155e+01
 5.1702667e+00   4.3617363e+01
 5.1757333e+00   4.4229209e+01
 5.1812000e+00   4.2941435e+01
 5.1866667e+00   4.2924017e+01
 5.1921333e+00   4.1827248e+01
 5.1976000e+00   4.1077727e+01
 5.2030667e+00   3.9841033e+01
 5.2085333e+00   3.9133771e+01
 5.2140000e+00   3.8066523e+01
 5.2194667e+00   3.7005501e+01
 5.2249333e+00   3.6611182e+01
 5.2304000e+00   3.5659390e+01
 5.2358667e+00   3.4986555e+01
 5.2413333e+00   3.4655660e+01
 5.2468000e+00   3.4280508e+01
 5.2522667e+00   3.3722369e+01
 5.2577333e+00   3.3796399e+01
 5.2632000e+00   3.3369509e+01
 5.2686667e+00   3.3380450e+01
 5.2741333e+00   3.3106898e+01
 5.2796000e+00   3.2986962e+01
 5.2850667e+00   3.2824319e+01
 5.2905333e+00   3.2814176e+01
 5.2960000e+00   3.2469619e+01
 5.3014667e+00   3.2564997e+01
 5.3069333e+00   3.2415036e+01
 5.3124000e+00   3.2300671e+01
 5.3178667e+00   3.2279935e+01
 5.3233333e+00   3.2279852e+01
 5.3288000e+00   3.2212042e+01
 5.3342667e+00   3.2235742e+01
 5.3397333e+00   3.2254679e+01
 5.3452000e+00   3.2027823e+01
 5.3506667e+00   3.2114593e+01
 5.3561333e+00   3.2022149e+01
 5.3616000e+00   3.1921243e+01
 5.3670667e+00   3.1829917e+01
 5.3725333e+00   3.1852409e+01
 5.3780000e+00   3.1624630e+01
 5.3834667e+00   3.1499568e+01
 5.3889333e+00   3.1469058e+01
 5.3944000e+00   3.1356331e+01
 5.3998667e+00   3.1268870e+01
 5.4053333e+00   3.1293440e+01
 5.4108000e+00   3.1292991e+01
 5.4162667e+00   3.1095199e+01
 5.4217333e+00   3.1277918e+01
 5.4272000e+00   3.1083602e+01
 5.4326667e+00   3.1185139e+01
 5.4381333e+00   3.1060002e+01
 5.4436000e+00   3.1042102e+01
 5.4490667e+00   3.0900862e+01
 5.4545333e+00   3.0984726e+01
 5.4600000e+00   3.0861818e+01
 5.4654667e+00   3.0856395e+01
 5.4709333e+00   3.0761673e+01
 5.4764000e+00   3.0793912e+01
 5.4818667e+00   3.0814480e+01
 5.4873333e+00   3.0787243e+01
 5.4928000e+00   3.0765077e+01
 5.4982667e+00   3.0689614e+01
 5.5037333e+00   3.0817009e+01
 5.5092000e+00   3.0663018e+01
 5.5146667e+00   3.0821643e+01
 5.5201333e+00   3.0616307e+01
 5.5256000e+00   3.0709120e+01
 5.5310667e+00   3.0516497e+01
 5.5365333e+00   3.0754553e+01
 5.5420000e+00   3.0646941e+01
 5.5474667e+00   3.0799007e+01
 5.5529333e+00   3.0696604e+01
 5.5584000e+00   3.0770543e+01
 5.5638667e+00   3.0751317e+01
 5.5693333e+00   3.0862305e+01
 5.5748000e+00   3.0887497e+01
 5.5802667e+00   3.0852487e+01
 5.5857333e+00   3.1149555e+01
 5.5912000e+00   3.1071328e+01
 5.5966667e+00   3.1147285e+01
 5.6021333e+00   3.1176988e+01
 5.6076000e+00   3.1312382e+01
 5.6130667e+00   3.1275890e+01
 5.6185333e+00   3.1346937e+01
 5.6240000e+00   3.1191368e+01
 5.6294667e+00   3.1191356e+01
 5.6349333e+00   3.1237431e+01
 5.6404000e+00   3.1198363e+01
 5.6458667e+00   3.1225573e+01
 5.6513333e+00   3.1328226e+01
 5.6568000e+00   3.1288289e+01
 5.6622667e+00   3.1200310e+01
 5.6677333e+00   3.1590035e+01
 5.6732000e+00   3.1464496e+01
 5.6786667e+00   3.1629809e+01
 5.6841333e+00   3.1669970e+01
 5.6896000e+00   3.1824168e+01
 5.6950667e+00   3.1890661e+01
 5.7005333e+00   3.2096543e+01
 5.7060000e+00   3.2129188e+01
 5.7114667e+00   3.2422783e+01
 5.7169333e+00   3.2381297e+01
 5.7224000e+00   3.2783091e+01
 5.7278667e+00   3.2823035e+01
 5.7333333e+00   3.3225478e+01
 5.7388000e+00   3.3363638e+01
 5.7442667e+00   3.3568135e+01
 5.7497333e+00   3.4049814e+01
 5.7552000e+00   3.4298675e+01
 5.7606667e+00   3.5250546e+01
 5.7661333e+00   3.5372235e+01
 5.7716000e+00   3.7034868e+01
 5.7770667e+00   3.7637889e+01
 5.7825333e+00   4.0203279e+01
 5.7880000e+00   4.4033677e+01
 5.7934667e+00   4.8913909e+01
 5.7989333e+00   6.3588818e+01
 5.8044000e+00   6.2061306e+01
 5.8098667e+00   8.5862502e+01
 5.8153333e+00   9.4203265e+01
 5.8208000e+00   1.2700944e+02
 5.8262667e+00   1.5406108e+02
 5.8317333e+00   2.1968110e+02
 5.8372000e+00   2.4415792e+02
 5.8426667e+00   2.5595847e+02
 5.8481333e+00   3.0470331e+02
 5.8536000e+00   2.6278872e+02
 5.8590667e+00   2.6712031e+02
 5.8645333e+00   2.6630945e+02
 5.8700000e+00   2.6499395e+02
 5.8754667e+00   1.6796646e+02
 5.8809333e+00   1.7100996e+02
 5.8864000e+00   1.4121344e+02
 5.8918667e+00   1.0249492e+02
 5.8973333e+00   7.5566473e+01
 5.9028000e+00   7.1467498e+01
 5.9082667e+00   5.1582424e+01
 5.9137333e+00   4.6287538e+01
 5.9192000e+00   3.9336212e+01
 5.9246667e+00   3.7339523e+01
 5.9301333e+00   3.5414857e+01
 5.9356000e+00   3.4748890e+01
 5.9410667e+00   3.3880733e+01
 5.9465333e+00   3.3880201e+01
 5.9520000e+00   3.3083692e+01
 5.9574667e+00   3.3256365e+01
 5.9629333e+00   3.2727562e+01
 5.9684000e+00   3.2901774e+01
 5.9738667e+00   3.2335935e+01
 5.9793333e+00   3.2605429e+01
 5.9848000e+00   3.2237788e+01
 5.9902667e+00   3.2370854e+01
 5.9957333e+00   3.2086164e+01
 6.0012000e+00   3.2060944e+01
 6.0066667e+00   3.2001703e+01
 6.0121333e+00   3.1871204e+01
 6.0176000e+00   3.1900993e+01
 6.0230667e+00   3.1793086e+01
 6.0285333e+00   3.1848397e+01
 6.0340000e+00   3.1888644e+01
 6.0394667e+00   3.2096406e+01
 6.0449333e+00   3.2150967e+01
 6.0504000e+00   3.2686048e+01
 6.0558667e+00   3.2938933e+01
 6.0613333e+00   3.3984941e+01
 6.0668000e+00   3.5587717e+01
 6.0722667e+00   3.8753829e+01
 6.0777333e+00   4.4115611e+01
 6.0832000e+00   5.4312619e+01
 6.0886667e+00   6.9274041e+01
 6.0941333e+00   8.8619302e+01
 6.0996000e+00   1.1955830e+02
 6.1050667e+00   1.5113529e+02
 6.1105333e+00   1.8712783e+02
 6.1160000e+00   2.1748485e+02
 6.1214667e+00   2.2789101e+02
 6.1269333e+00   2.1686881e+02
 6.1324000e+00   2.0828086e+02
 6.1378667e+00   1.7842737e+02
 6.1433333e+00   1.6398420e+02
 6.1488000e+00   1.2036369e+02
 6.1542667e+00   1.0283086e+02
 6.1597333e+00   6.8330761e+01
 6.1652000e+00   5.5840452e+01
 6.1706667e+00   4.3445580e+01
 6.1761333e+00   3.8799863e+01
 6.1816000e+00   3.4411859e+01
 6.1870667e+00   3.3131447e+01
 6.1925333e+00   3.1650705e+01
 6.1980000e+00   3.1208106e+01
 6.2034667e+00   3.0805145e+01
 6.2089333e+00   3.0640204e+01
 6.2144000e+00   3.0482676e+01
 6.2198667e+00   3.0348002e+01
 6.2253333e+00   3.0403132e+01
 6.2308000e+00   3.0149186e+01
 6.2362667e+00   3.0312219e+01
 6.2417333e+00   3.0048305e+01
 6.2472000e+00   3.0083019e+01
 6.2526667e+00   2.9929780e+01
 6.2581333e+00   2.9969077e+01
 6.2636000e+00   2.9722064e+01
 6.2690667e+00   2.9856927e+01
 6.2745333e+00   2.9583629e+01
 6.2800000e+00   2.9687031e+01
 6.2854667e+00   2.9517297e+01
 6.2909333e+00   2.9556144e+01
 6.2964000e+00   2.9446317e+01
 6.3018667e+00   2.9471004e+01
 6.3073333e+00   2.9412527e+01
 6.3128000e+00   2.9356561e+01
 6.3182667e+00   2.9378375e+01
 6.3237333e+00   2.9412268e+01
 6.3292000e+00   2.9262177e+01
 6.3346667e+00   2.9409025e+01
 6.3401333e+00   2.9392554e+01
 6.3456000e+00   2.9313485e+01
 6.3510667e+00   2.9386312e+01
 6.3565333e+00   2.9425807e+01
 6.3620000e+00   2.9487358e+01
 6.3674667e+00   2.9421541e+01
 6.3729333e+00   2.9588140e+01
 6.3784000e+00   2.9934871e+01
 6.3838667e+00   3.0100785e+01
 6.3893333e+00   2.9862968e+01
 6.3948000e+00   2.9966190e+01
 6.4002667e+00   2.9463981e+01
 6.4057333e+00   2.9536060e+01
 6.4112000e+00   2.9537392e+01
 6.4166667e+00   3.0297844e+01
 6.4221333e+00   2.9786809e+01
 6.4276000e+00   2.9692783e+01
 6.4330667e+00   2.9896839e+01
 6.4385333e+00   2.9916181e+01
 6.4440000e+00   3.0357230e+01
 6.4494667e+00   3.0641846e+01
 6.4549333e+00   3.1212979e+01
 6.4604000e+00   3.1686715e+01
 6.4658667e+00   3.2995674e+01
 6.4713333e+00   3.3649076e+01
 6.4768000e+00   3.5189028e+01
 6.4822667e+00   3.6400164e+01
 6.4877333e+00   3.8571190e+01
 6.4932000e+00   3.9385220e+01
 6.4986667e+00   4.2374162e+01
 6.5041333e+00   4.1868897e+01
 6.5096000e+00   4.2886508e+01
 6.5150667e+00   4.4030793e+01
 6.5205333e+00   4.2160289e+01
 6.5260000e+00   4.2259551e+01
 6.5314667e+00   4.0776545e+01
 6.5369333e+00   3.9862756e+01
 6.5424000e+00   3.7617093e+01
 6.5478667e+00   3.6508752e+01
 6.5533333e+00   3.5368220e+01
 6.5588000e+00   3.4247468e+01
 6.5642667e+00   3.2708226e+01
 6.5697333e+00   3.2106417e+01
 6.5752000e+00   3.1283070e+01
 6.5806667e+00   3.0999567e+01
 6.5861333e+00   3.0400927e+01
 6.5916000e+00   3.0191872e+01
 6.5970667e+00   3.0003791e+01
 6.6025333e+00   2.9748428e+01
 6.6080000e+00   2.9721243e+01
 6.6134667e+00   2.9534186e+01
 6.6189333e+00   2.9499094e+01
 6.6244000e+00   2.9399165e+01
 6.6298667e+00   2.9432085e+01
 6.6353333e+00   2.9306183e+01
 6.6408000e+00   2.9357658e+01
 6.6462667e+00   2.9310202e+01
 6.6517333e+00   2.9361024e+01
 6.6572000e+00   2.9206912e+01
 6.6626667e+00   2.9330017e+01
 6.6681333e+00   2.9189638e+01
 6.6736000e+00   2.9261989e+01
 6.6790667e+00   2.9228531e+01
 6.6845333e+00   2.9299492e+01
 6.6900000e+00   2.9258926e+01
 6.6954667e+00   2.9233067e+01
 6.7009333e+00   2.9244347e+01
 6.7064000e+00   2.9228815e+01
 6.7118667e+00   2.9361649e+01
 6.7173333e+00   2.9323887e+01
 6.7228000e+00   2.9436967e+01
 6.7282667e+00   2.9295882e+01
 6.7337333e+00   2.9405488e+01
 6.7392000e+00   2.9301003e+01
 6.7446667e+00   2.9435598e+01
 6.7501333e+00   2.9288735e+01
 6.7556000e+00   2.9522001e+01
 6.7610667e+00   2.9356129e+01
 6.7665333e+00   2.9499281e+01
 6.7720000e+00   2.9410275e+01
 6.7774667e+00   2.9506609e+01
 6.7829333e+00   2.9478308e+01
 6.7884000e+00   2.9520148e+01
 6.7938667e+00   2.9528210e+01
 6.7993333e+00   2.9514601e+01
 6.8048000e+00   2.9630058e+01
 6.8102667e+00   2.9613598e+01
 6.8157333e+00   2.9716863e+01
 6.8212000e+00   3.0103736e+01
 6.8266667e+00   2.9848400e+01
 6.8321333e+00   2.9728892e+01
 6.8376000e+00   2.9781235e+01
 6.8430667e+00   2.9757500e+01
 6.8485333e+00   2.9740531e+01
 6.8540000e+00   2.9763921e+01
 6.8594667e+00   2.9860897e+01
 6.8649333e+00   2.9790363e+01
 6.8704000e+00   2.9921671e+01
 6.8758667e+00   2.9914633e+01
 6.8813333e+00   2.9998718e+01
 6.8868000e+00   2.9952440e+01
 6.8922667e+00   2.9998972e+01
 6.8977333e+00   2.9978971e+01
 6.9032000e+00   3.0002204e+01
 6.9086667e+00   3.0125982e+01
 6.9141333e+00   2.9930707e+01
 6.9196000e+00   3.0139464e+01
 6.9250667e+00   3.0142138e+01
 6.9305333e+00   3.0148473e+01
 6.9360000e+00   3.0203673e+01
 6.9414667e+00   3.0348878e+01
 6.9469333e+00   3.0271921e+01
 6.9524000e+00   3.0439261e+01
 6.9578667e+00   3.0392442e+01
 6.9633333e+00   3.0512495e+01
 6.9688000e+00   3.0521678e+01
 6.9742667e+00   3.0671744e+01
 6.9797333e+00   3.0786690e+01
 6.9852000e+00   3.1035608e+01
 6.9906667e+00   3.0750286e+01
 6.9961333e+00   3.0934170e+01
 7.0016000e+00   3.0999246e+01
 7.0070667e+00   3.0943134e+01
 7.0125333e+00   3.1084369e+01
 7.0180000e+00   3.1091647e+01
 7.0234667e+00   3.1213928e+01
 7.0289333e+00   3.1042127e+01
 7.0344000e+00   3.1277934e+01
 7.0398667e+00   3.1309357e+01
 7.0453333e+00   3.1379414e+01
 7.0508000e+00   3.1411550e+01
 7.0562667e+00   3.1726939e+01
 7.0617333e+00   3.1609101e+01
 7.0672000e+00   3.1876270e+01
 7.0726667e+00   3.1880811e+01
 7.0781333e+00   3.2053810e+01
 7.0836000e+00   3.2026843e+01
 7.0890667e+00   3.2354219e+01
 7.0945333e+00   3.2331093e+01
 7.1000000e+00   3.2672481e+01
 7.1054667e+00   3.2915169e+01
 7.1109333e+00   3.3208668e+01
 7.1164000e+00   3.3712666e+01
 7.1218667e+00   3.4515138e+01
 7.1273333e+00   3.5684831e+01
 7.1328000e+00   3.7468521e+01
 7.1382667e+00   4.1494114e+01
 7.1437333e+00   4.7029493e+01
 7.1492000e+00   5.3268894e+01
 7.1546667e+00   7.0795015e+01
 7.1601333e+00   8.8498060e+01
 7.1656000e+00   1.1094997e+02
 7.1710667e+00   1.4889085e+02
 7.1765333e+00   1.7485458e+02
 7.1820000e+00   2.1023914e+02
 7.1874667e+00   2.4045605e+02
 7.1929333e+00   2.6603499e+02
 7.1984000e+00   2.3935741e+02
 7.2038667e+00   2.6648105e+02
 7.2093333e+00   1.9448576e+02
 7.2148000e+00   1.7207137e+02
 7.2202667e+00   1.2578293e+02
 7.2257333e+00   1.0458933e+02
 7.2312000e+00   8.2957477e+01
 7.2366667e+00   6.6480122e+01
 7.2421333e+00   5.4600344e+01
 7.2476000e+00   4.5526516e+01
 7.2530667e+00   3.9673947e+01
 7.2585333e+00   3.6532046e+01
 7.2640000e+00   3.5349018e+01
 7.2694667e+00   3.4031863e+01
 7.2749333e+00   3.3740911e+01
 7.2804000e+00   3.3286634e+01
 7.2858667e+00   3.3355687e+01
 7.2913333e+00   3.3010368e+01
 7.2968000e+00   3.3067059e+01
 7.3022667e+00   3.3018102e+01
 7.3077333e+00   3.2939750e+01
 7.3132000e+00   3.2871973e+01
 7.3186667e+00   3.2905658e+01
 7.3241333e+00   3.2824716e+01
 7.3296000e+00   3.2652017e+01
 7.3350667e+00   3.2821768e+01
 7.3405333e+00   3.2570822e+01
 7.3460000e+00   3.2682696e+01
 7.3514667e+00   3.2545633e+01
 7.3569333e+00   3.2532472e+01
 7.3624000e+00   3.2307740e+01
 7.3678667e+00   3.2518184e+01
 7.3733333e+00   3.2268332e+01
 7.3788000e+00   3.2283094e+01
 7.3842667e+00   3.2187846e+01
 7.3897333e+00   3.2145026e+01
 7.3952000e+00   3.2039859e+01
 7.4006667e+00   3.2161765e+01
 7.4061333e+00   3.1971994e+01
 7.4116000e+00   3.1926814e+01
 7.4170667e+00   3.1917411e+01
 7.4225333e+00   3.1803045e+01
 7.4280000e+00   3.1899532e+01
 7.4334667e+00   3.1713052e+01
 7.4389333e+00   3.1829877e+01
 7.4444000e+00   3.1669032e+01
 7.4498667e+00   3.1759710e+01
 7.4553333e+00   3.1668784e+01
 7.4608000e+00   3.1725909e+01
 7.4662667e+00   3.1685968e+01
 7.4717333e+00   3.1783015e+01
 7.4772000e+00   3.1687856e+01
 7.4826667e+00   3.1727642e+01
 7.4881333e+00   3.1664078e+01
 7.4936000e+00   3.1669042e+01
 7.4990667e+00   3.1672441e+01
 7.5045333e+00   3.1653100e+01
 7.5100000e+00   3.1710919e+01
 7.5154667e+00   3.1706285e+01
 7.5209333e+00   3.1736077e+01
 7.5264000e+00   3.1688037e+01
 7.5318667e+00   3.1871750e+01
 7.5373333e+00   3.1756301e+01
 7.5428000e+00   3.1852011e+01
 7.5482667e+00   3.1749961e+01
 7.5537333e+00   3.1930536e+01
 7.5592000e+00   3.1872705e+01
 7.5646667e+00   3.1997046e+01
 7.5701333e+00   3.1948010e+01
 7.5756000e+00   3.1984270e+01
 7.5810667e+00   3.1978502e+01
 7.5865333e+00   3.2070726e+01
 7.5920000e+00   3.2033534e+01
 7.5974667e+00   3.2133003e+01
 7.6029333e+00   3.2035016e+01
 7.6084000e+00   3.2186624e+01
 7.6138667e+00   3.2013716e+01
 7.6193333e+00   3.2135855e+01
 7.6248000e+00   3.2087561e+01
 7.6302667e+00   3.2054178e+01
 7.6357333e+00   3.2092784e+01
 7.6412000e+00   3.2026794e+01
 7.6466667e+00   3.2077475e+01
 7.6521333e+00   3.2011686e+01
 7.6576000e+00   3.2138780e+01
 7.6630667e+00   3.2006397e+01
 7.6685333e+00   3.2145709e+01
 7.6740000e+00   3.2117007e+01
 7.6794667e+00   3.2158876e+01
 7.6849333e+00   3.2198601e+01
 7.6904000e+00   3.2249211e+01
 7.6958667e+00   3.2251760e+01
 7.7013333e+00   3.2321436e+01
 7.7068000e+00   3.2318362e+01
 7.7122667e+00   3.2449608e+01
 7.7177333e+00   3.2550527e+01
 7.7232000e+00   3.2487234e+01
 7.7286667e+00   3.2638757e+01
 7.7341333e+00   3.2571789e+01
 7.7396000e+00   3.2804068e+01
 7.7450667e+00   3.2585908e+01
 7.7505333e+00   3.2852450e+01
 7.7560000e+00   3.2702522e+01
 7.7614667e+00   3.2922225e+01
 7.7669333e+00   3.2948185e+01
 7.7724000e+00   3.2991043e+01
 7.7778667e+00   3.2946092e+01
 7.7833333e+00   3.3151441e+01
 7.7888000e+00   3.3214410e+01
 7.7942667e+00   3.3320034e+01
 7.7997333e+00   3.3450099e+01
 7.8052000e+00   3.3581709e+01
 7.8106667e+00   3.3657540e+01
 7.8161333e+00   3.3932610e+01
 7.8216000e+00   3.4031275e+01
 7.8270667e+00   3.4242551e+01
 7.8325333e+00   3.4550729e+01
 7.8380000e+00   3.4650485e+01
 7.8434667e+00   3.5058081e+01
 7.8489333e+00   3.5341156e+01
 7.8544000e+00   3.5871413e+01
 7.8598667e+00   3.6413053e+01
 7.8653333e+00   3.7308720e+01
 7.8708000e+00   3.8882682e+01
 7.8762667e+00   4.1325276e+01
 7.8817333e+00   4.5052471e+01
 7.8872000e+00   5.4636052e+01
 7.8926667e+00   6.7555854e+01
 7.8981333e+00   8.4640049e+01
 7.9036000e+00   1.1397004e+02
 7.9090667e+00   1.4560550e+02
 7.9145333e+00   1.8295109e+02
 7.9200000e+00   2.2698812e+02
 7.9254667e+00   2.7692537e+02
 7.9309333e+00   3.0991544e+02
 7.9364000e+00   3.3488966e+02
 7.9418667e+00   3.2250668e+02
 7.9473333e+00   2.9029866e+02
 7.9528000e+00   2.3171544e+02
 7.9582667e+00   1.7875002e+02
 7.9637333e+00   1.3832714e+02
 7.9692000e+00   1.0672098e+02
 7.9746667e+00   8.6406857e+01
 7.9801333e+00   7.5050131e+01
 7.9856000e+00   6.5352399e+01
 7.9910667e+00   5.8520897e+01
 7.9965333e+00   5.7703565e+01
 8.0020000e+00   5.4263815e+01
 8.0074667e+00   5.0838352e+01
 8.0129333e+00   5.1297123e+01
 8.0184000e+00   4.7924974e+01
 8.0238667e+00   4.5367152e+01
 8.0293333e+00   4.5092584e+01
 8.0348000e+00   4.2866105e+01
 8.0402667e+00   4.0580463e+01
 8.0457333e+00   4.0169043e+01
 8.0512000e+00   3.9049203e+01
 8.0566667e+00   3.7871623e+01
 8.0621333e+00   3.7518958e+01
 8.0676000e+00   3.6944064e+01
 8.0730667e+00   3.6543482e+01
 8.0785333e+00   3.6189502e+01
 8.0840000e+00   3.6067957e+01
 8.0894667e+00   3.5782648e+01
 8.0949333e+00   3.5669518e+01
 8.1004000e+00   3.5576771e+01
 8.1058667e+00   3.5517882e+01
 8.1113333e+00   3.5560130e+01
 8.1168000e+00   3.5528743e+01
 8.1222667e+00   3.5573702e+01
 8.1277333e+00   3.5495408e+01
 8.1332000e+00   3.5711002e+01
 8.1386667e+00   3.5571905e+01
 8.1441333e+00   3.5855557e+01
 8.1496000e+00   3.5692793e+01
 8.1550667e+00   3.5980364e+01
 8.1605333e+00   3.5749681e+01
 8.1660000e+00   3.6111929e+01
 8.1714667e+00   3.5972168e+01
 8.1769333e+00   3.6323714e+01
 8.1824000e+00   3.6309279e+01
 8.1878667e+00   3.6743086e+01
 8.1933333e+00   3.6696655e+01
 8.1988000e+00   3.7196593e+01
 8.2042667e+00   3.7670907e+01
 8.2097333e+00   3.8413117e+01
 8.2152000e+00   3.9717064e+01
 8.2206667e+00   4.1244837e+01
 8.2261333e+00   4.6239613e+01
 8.2316000e+00   4.7767799e+01
 8.2370667e+00   7.1346079e+01
 8.2425333e+00   7.6842528e+01
 8.2480000e+00   9.3141086e+01
 8.2534667e+00   9.7233473e+01
 8.2589333e+00   1.1599751e+02
 8.2644000e+00   1.2938398e+02
 8.2698667e+00   1.3283216e+02
 8.2753333e+00   1.4740294e+02
 8.2808000e+00   1.6519882e+02
 8.2862667e+00   1.3697364e+02
 8.2917333e+00   1.2433961e+02
 8.2972000e+00   1.0250159e+02
 8.3026667e+00   9.5909381e+01
 8.3081333e+00   1.1048848e+02
 8.3136000e+00   1.1813124e+02
 8.3190667e+00   1.0418185e+02
 8.3245333e+00   9.2948560e+01
 8.3300000e+00   9.9887766e+01
 8.3354667e+00   6.1504192e+01
 8.3409333e+00   6.7143946e+01
 8.3464000e+00   4.5857997e+01
 8.3518667e+00   4.5760120e+01
 8.3573333e+00   4.0435569e+01
 8.3628000e+00   3.9953725e+01
 8.3682667e+00   3.8377454e+01
 8.3737333e+00   3.8414811e+01
 8.3792000e+00   3.7910125e+01
 8.3846667e+00   3.8040107e+01
 8.3901333e+00   3.7809823e+01
 8.3956000e+00   3.8280002e+01
 8.4010667e+00   3.8123771e+01
 8.4065333e+00   3.8594074e+01
 8.4120000e+00   3.8862574e+01
 8.4174667e+00   3.9776255e+01
 8.4229333e+00   4.0622525e+01
 8.4284000e+00   4.3023045e+01
 8.4338667e+00   4.6305012e+01
 8.4393333e+00   5.3750870e+01
 8.4448000e+00   6.3017645e+01
 8.4502667e+00   8.1971557e+01
 8.4557333e+00   9.9881433e+01
 8.4612000e+00   1.2830206e+02
 8.4666667e+00   1.5925047e+02
 8.4721333e+00   1.8302336e+02
 8.4776000e+00   2.0339588e+02
 8.4830667e+00   2.2271519e+02
 8.4885333e+00   2.2079268e+02
 8.4940000e+00   2.2316991e+02
 8.4994667e+00   2.1153173e+02
 8.5049333e+00   1.9193477e+02
 8.5104000e+00   1.6784320e+02
 8.5158667e+00   1.3832294e+02
 8.5213333e+00   1.1320298e+02
 8.5268000e+00   8.7076476e+01
 8.5322667e+00   7.2734101e+01
 8.5377333e+00   5.8074436e+01
 8.5432000e+00   5.1911961e+01
 8.5486667e+00   4.6765127e+01
 8.5541333e+00   4.6214597e+01
 8.5596000e+00   4.7479818e+01
 8.5650667e+00   5.1948062e+01
 8.5705333e+00   5.8924492e+01
 8.5760000e+00   7.0858656e+01
 8.5814667e+00   8.5320248e+01
 8.5869333e+00   1.0434286e+02
 8.5924000e+00   1.2187787e+02
 8.5978667e+00   1.3914191e+02
 8.6033333e+00   1.5202543e+02
 8.6088000e+00   1.5429475e+02
 8.6142667e+00   1.5472603e+02
 8.6197333e+00   1.5020515e+02
 8.6252000e+00   1.3715734e+02
 8.6306667e+00   1.2684838e+02
 8.6361333e+00   1.0335911e+02
 8.6416000e+00   8.6339558e+01
 8.6470667e+00   6.8716197e+01
 8.6525333e+00   5.6985378e+01
 8.6580000e+00   4.8907386e+01
 8.6634667e+00   4.3498665e+01
 8.6689333e+00   4.0281765e+01
 8.6744000e+00   3.8221341e+01
 8.6798667e+00   3.6864769e+01
 8.6853333e+00   3.6280804e+01
 8.6908000e+00   3.5632530e+01
 8.6962667e+00   3.5465426e+01
 8.7017333e+00   3.5036887e+01
 8.7072000e+00   3.5209738e+01
 8.7126667e+00   3.4730504e+01
 8.7181333e+00   3.5046680e+01
 8.7236000e+00   3.4681324e+01
 8.7290667e+00   3.4861960e+01
 8.7345333e+00   3.4475691e+01
 8.7400000e+00   3.4377641e+01
 8.7454667e+00   3.3958584e+01
 8.7509333e+00   3.4167361e+01
 8.7564000e+00   3.3816764e+01
 8.7618667e+00   3.4021660e+01
 8.7673333e+00   3.3789278e+01
 8.7728000e+00   3.3787615e+01
 8.7782667e+00   3.3587550e+01
 8.7837333e+00   3.3577450e+01
 8.7892000e+00   3.3434722e+01
 8.7946667e+00   3.3336076e+01
 8.8001333e+00   3.3279245e+01
 8.8056000e+00   3.3110179e+01
 8.8110667e+00   3.3130968e+01
 8.8165333e+00   3.3164675e+01
 8.8220000e+00   3.3082078e+01
 8.8274667e+00   3.3073141e+01
 8.8329333e+00   3.3096189e+01
 8.8384000e+00   3.2676544e+01
 8.8438667e+00   3.2743224e+01
 8.8493333e+00   3.2443241e+01
 8.8548000e+00   3.2616208e+01
 8.8602667e+00   3.2325780e+01
 8.8657333e+00   3.2488876e+01
 8.8712000e+00   3.2136533e+01
 8.8766667e+00   3.2379247e+01
 8.8821333e+00   3.2131823e+01
 8.8876000e+00   3.2395574e+01
 8.8930667e+00   3.2116249e+01
 8.8985333e+00   3.2357334e+01
 8.9040000e+00   3.2307203e+01
 8.9094667e+00   3.2350000e+01
 8.9149333e+00   3.2358529e+01
 8.9204000e+00   3.2459146e+01
 8.9258667e+00   3.2593072e+01
 8.9313333e+00   3.2369077e+01
 8.9368000e+00   3.2522178e+01
 8.9422667e+00   3.2539529e+01
 8.9477333e+00   3.2820470e+01
 8.9532000e+00   3.3037336e+01
 8.9586667e+00   3.3617001e+01
 8.9641333e+00   3.4148457e+01
 8.9696000e+00   3.6561467e+01
 8.9750667e+00   3.8932914e+01
 8.9805333e+00   4.1077709e+01
 8.9860000e+00   4.5790466e+01
 8.9914667e+00   4.8182297e+01
 8.9969333e+00   4.6635066e+01
 9.0024000e+00   5.3626985e+01
 9.0078667e+00   5.2939994e+01
 9.0133333e+00   4.8121215e+01
 9.0188000e+00   5.1598100e+01
 9.0242667e+00   5.0078625e+01
 9.0297333e+00   5.0369518e+01
 9.0352000e+00   4.9044495e+01
 9.0406667e+00   4.4702003e+01
 9.0461333e+00   3.9471460e+01
 9.0516000e+00   3.5693200e+01
 9.0570667e+00   3.2979198e+01
 9.0625333e+00   3.1806632e+01
 9.0680000e+00   3.0796789e+01
 9.0734667e+00   3.0553097e+01
 9.0789333e+00   2.9959350e+01
 9.0844000e+00   3.0089755e+01
 9.0898667e+00   2.9712708e+01
 9.0953333e+00   2.9823756e+01
 9.1008000e+00   2.9524134e+01
 9.1062667e+00   2.9703274e+01
 9.1117333e+00   2.9415399e+01
 9.1172000e+00   2.9559007e+01
 9.1226667e+00   2.9359013e+01
 9.1281333e+00   2.9441454e+01
 9.1336000e+00   2.9302093e+01
 9.1390667e+00   2.9366775e+01
 9.1445333e+00   2.9263151e+01
 9.1500000e+00   2.9253810e+01
 9.1554667e+00   2.9334714e+01
 9.1609333e+00   2.9385356e+01
 9.1664000e+00   2.9418845e+01
 9.1718667e+00   2.9689004e+01
 9.1773333e+00   2.9926785e+01
 9.1828000e+00   3.0009048e+01
 9.1882667e+00   3.0688726e+01
 9.1937333e+00   3.0714053e+01
 9.1992000e+00   3.0971801e+01
 9.2046667e+00   3.1378551e+01
 9.2101333e+00   3.1737747e+01
 9.2156000e+00   3.1203483e+01
 9.2210667e+00   3.2063298e+01
 9.2265333e+00   3.1626793e+01
 9.2320000e+00   3.1535901e+01
 9.2374667e+00   3.1474166e+01
 9.2429333e+00   3.1467219e+01
 9.2484000e+00   3.0714844e+01
 9.2538667e+00   3.0727961e+01
 9.2593333e+00   3.0321510e+01
 9.2648000e+00   2.9997323e+01
 9.2702667e+00   2.9825356e+01
 9.2757333e+00   2.9625078e+01
 9.2812000e+00   2.9218505e+01
 9.2866667e+00   2.9081274e+01
 9.2921333e+00   2.8884599e+01
 9.2976000e+00   2.8588260e+01
 9.3030667e+00   2.8378224e+01
 9.3085333e+00   2.8242077e+01
 9.3140000e+00   2.8141349e+01
 9.3194667e+00   2.7936392e+01
 9.3249333e+00   2.8001258e+01
 9.3304000e+00   2.7879351e+01
 9.3358667e+00   2.7861081e+01
 9.3413333e+00   2.7690290e+01
 9.3468000e+00   2.7733665e+01
 9.3522667e+00   2.7615660e+01
 9.3577333e+00   2.7751984e+01
 9.3632000e+00   2.7604898e+01
 9.3686667e+00   2.7689469e+01
 9.3741333e+00   2.7637004e+01
 9.3796000e+00   2.7747509e+01
 9.3850667e+00   2.7847668e+01
 9.3905333e+00   2.8082856e+01
 9.3960000e+00   2.8554915e+01
 9.4014667e+00   2.9255990e+01
 9.4069333e+00   3.0337788e+01
 9.4124000e+00   3.2169740e+01
 9.4178667e+00   3.4305203e+01
 9.4233333e+00   3.7788128e+01
 9.4288000e+00   4.0995387e+01
 9.4342667e+00   4.4105892e+01
 9.4397333e+00   4.6971563e+01
 9.4452000e+00   4.8582812e+01
 9.4506667e+00   4.9377692e+01
 9.4561333e+00   5.0246317e+01
 9.4616000e+00   4.9960783e+01
 9.4670667e+00   4.9489551e+01
 9.4725333e+00   4.7990960e+01
 9.4780000e+00   4.5874471e+01
 9.4834667e+00   4.2373406e+01
 9.4889333e+00   3.9135349e+01
 9.4944000e+00   3.5587364e+01
 9.4998667e+00   3.3539616e+01
 9.5053333e+00   3.0663471e+01
 9.5108000e+00   2.9833019e+01
 9.5162667e+00   2.8367626e+01
 9.5217333e+00   2.7973957e+01
 9.5272000e+00   2.7616120e+01
 9.5326667e+00   2.7503254e+01
 9.5381333e+00   2.7388411e+01
 9.5436000e+00   2.7375882e+01
 9.5490667e+00   2.7313921e+01
 9.5545333e+00   2.7401014e+01
 9.5600000e+00   2.7391681e+01
 9.5654667e+00   2.7615207e+01
 9.5709333e+00   2.7580396e+01
 9.5764000e+00   2.7724593e+01
 9.5818667e+00   2.7603501e+01
 9.5873333e+00   2.7825708e+01
 9.5928000e+00   2.7675659e+01
 9.5982667e+00   2.7961042e+01
 9.6037333e+00   2.7882242e+01
 9.6092000e+00   2.8073022e+01
 9.6146667e+00   2.8138868e+01
 9.6201333e+00   2.8391591e+01
 9.6256000e+00   2.8577104e+01
 9.6310667e+00   2.9064434e+01
 9.6365333e+00   2.9349046e+01
 9.6420000e+00   3.0236672e+01
 9.6474667e+00   3.2713158e+01
 9.6529333e+00   3.6821310e+01
 9.6584000e+00   4.2516465e+01
 9.6638667e+00   5.8500008e+01
 9.6693333e+00   5.7408224e+01
 9.6748000e+00   8.0434342e+01
 9.6802667e+00   9.1253784e+01
 9.6857333e+00   1.0159608e+02
 9.6912000e+00   1.3119840e+02
 9.6966667e+00   1.6196075e+02
 9.7021333e+00   1.5884856e+02
 9.7076000e+00   1.7722781e+02
 9.7130667e+00   1.9106903e+02
 9.7185333e+00   1.7759499e+02
 9.7240000e+00   1.8758578e+02
 9.7294667e+00   1.7985181e+02
 9.7349333e+00   2.0932304e+02
 9.7404000e+00   1.6065500e+02
 9.7458667e+00   1.7644881e+02
 9.7513333e+00   1.2531936e+02
 9.7568000e+00   1.1458753e+02
 9.7622667e+00   6.8429775e+01
 9.7677333e+00   5.8994744e+01
 9.7732000e+00   4.2605623e+01
 9.7786667e+00   3.8218478e+01
 9.7841333e+00   3.4259259e+01
 9.7896000e+00   3.0613644e+01
 9.7950667e+00   2.9632077e+01
 9.8005333e+00   2.8741803e+01
 9.8060000e+00   2.8373799e+01
 9.8114667e+00   2.7982263e+01
 9.8169333e+00   2.7802354e+01
 9.8224000e+00   2.7662743e+01
 9.8278667e+00   2.7448930e+01
 9.8333333e+00   2.7355430e+01
 9.8388000e+00   2.7267393e+01
 9.8442667e+00   2.7124047e+01
 9.8497333e+00   2.7104706e+01
 9.8552000e+00   2.7052155e+01
 9.8606667e+00   2.7178577e+01
 9.8661333e+00   2.7166368e+01
 9.8716000e+00   2.7434157e+01
 9.8770667e+00   2.7774091e+01
 9.8825333e+00   2.8642354e+01
 9.8880000e+00   2.9921194e+01
 9.8934667e+00   3.2024458e+01
 9.8989333e+00   3.4899216e+01
 9.9044000e+00   3.8667684e+01
 9.9098667e+00   4.2955185e+01
 9.9153333e+00   4.8034011e+01
 9.9208000e+00   5.1606542e+01
 9.9262667e+00   5.3680403e+01
 9.9317333e+00   5.2719451e+01
 9.9372000e+00   4.9948092e+01
 9.9426667e+00   4.5331959e+01
 9.9481333e+00   4.0817533e+01
 9.9536000e+00   3.7080932e+01
 9.9590667e+00   3.3531962e+01
 9.9645333e+00   3.1094263e+01
 9.9700000e+00   2.9103049e+01
 9.9754667e+00   2.7845987e+01
 9.9809333e+00   2.6986670e+01
 9.9864000e+00   2.6531693e+01
 9.9918667e+00   2.6231696e+01
 9.9973333e+00   2.6097227e+01
 1.0002800e+01   2.6003095e+01
 1.0008267e+01   2.5982264e+01
 1.0013733e+01   2.6012484e+01
 1.0019200e+01   2.5995965e+01
 1.0024667e+01   2.6283811e+01
 1.0030133e+01   2.6003496e+01
 1.0035600e+01   2.7412215e+01
 1.0041067e+01   2.6162741e+01
 1.0046533e+01   2.6151809e+01
 1.0052000e+01   2.6065618e+01
 1.0057467e+01   2.6108353e+01
 1.0062933e+01   2.6104600e+01
 1.0068400e+01   2.6350638e+01
 1.0073867e+01   2.6505310e+01
 1.0079333e+01   2.7083836e+01
 1.0084800e+01   2.7654752e+01
 1.0090267e+01   2.8606932e+01
 1.0095733e+01   3.5174522e+01
 1.0101200e+01   3.3666220e+01
 1.0106667e+01   4.8320665e+01
 1.0112133e+01   4.4848587e+01
 1.0117600e+01   5.5769659e+01
 1.0123067e+01   6.8856926e+01
 1.0128533e+01   6.8817210e+01
 1.0134000e+01   8.8709905e+01
 1.0139467e+01   7.1563477e+01
 1.0144933e+01   8.0004465e+01
 1.0150400e+01   6.3253538e+01
 1.0155867e+01   6.9760989e+01
 1.0161333e+01   7.4805756e+01
 1.0166800e+01   5.9342031e+01
 1.0172267e+01   6.8436617e+01
 1.0177733e+01   5.3185732e+01
 1.0183200e+01   4.4629914e+01
 1.0188667e+01   4.1667107e+01
 1.0194133e+01   3.7129070e+01
 1.0199600e+01   3.4164059e+01
 1.0205067e+01   3.2330339e+01
 1.0210533e+01   2.8737004e+01
 1.0216000e+01   2.7342773e+01
 1.0221467e+01   2.6862810e+01
 1.0226933e+01   2.6438950e+01
 1.0232400e+01   2.6399804e+01
 1.0237867e+01   2.6360473e+01
 1.0243333e+01   2.6518077e+01
 1.0248800e+01   2.6545512e+01
 1.0254267e+01   2.6818059e+01
 1.0259733e+01   2.7109305e+01
 1.0265200e+01   2.7370545e+01
 1.0270667e+01   2.7683400e+01
 1.0276133e+01   2.8224351e+01
 1.0281600e+01   2.8441939e+01
 1.0287067e+01   2.8957849e+01
 1.0292533e+01   2.9421373e+01
 1.0298000e+01   2.9756729e+01
 1.0303467e+01   3.0023744e+01
 1.0308933e+01   3.0448362e+01
 1.0314400e+01   3.0450498e+01
 1.0319867e+01   3.0749563e+01
 1.0325333e+01   3.0541383e+01
 1.0330800e+01   3.0532509e+01
 1.0336267e+01   3.0298523e+01
 1.0341733e+01   3.0049695e+01
 1.0347200e+01   2.9699256e+01
 1.0352667e+01   2.9297579e+01
 1.0358133e+01   2.9160534e+01
 1.0363600e+01   2.8508138e+01
 1.0369067e+01   2.8388208e+01
 1.0374533e+01   2.7882774e+01
 1.0380000e+01   2.7687052e+01
 1.0385467e+01   2.7227173e+01
 1.0390933e+01   2.6975389e+01
 1.0396400e+01   2.6625930e+01
 1.0401867e+01   2.6389723e+01
 1.0407333e+01   2.6130904e+01
 1.0412800e+01   2.6027817e+01
 1.0418267e+01   2.5804135e+01
 1.0423733e+01   2.5709444e+01
 1.0429200e+01   2.5570936e+01
 1.0434667e+01   2.5488927e+01
 1.0440133e+01   2.5401511e+01
 1.0445600e+01   2.5343320e+01
 1.0451067e+01   2.5307097e+01
 1.0456533e+01   2.5239867e+01
 1.0462000e+01   2.5216609e+01
 1.0467467e+01   2.5179584e+01
 1.0472933e+01   2.5120889e+01
 1.0478400e+01   2.5216681e+01
 1.0483867e+01   2.5103835e+01
 1.0489333e+01   2.5114372e+01
 1.0494800e+01   2.5064570e+01
 1.0500267e+01   2.5040783e+01
 1.0505733e+01   2.5053565e+01
 1.0511200e+01   2.5025693e+01
 1.0516667e+01   2.5099018e+01
 1.0522133e+01   2.5156584e+01
 1.0527600e+01   2.5078225e+01
 1.0533067e+01   2.5116733e+01
 1.0538533e+01   2.5070492e+01
 1.0544000e+01   2.5050451e+01
 1.0549467e+01   2.5046933e+01
 1.0554933e+01   2.5076668e+01
 1.0560400e+01   2.5123515e+01
 1.0565867e+01   2.5169037e+01
 1.0571333e+01   2.5240703e+01
 1.0576800e+01   2.5132423e+01
 1.0582267e+01   2.5143245e+01
 1.0587733e+01   2.5225778e+01
 1.0593200e+01   2.5235192e+01
 1.0598667e+01   2.5232261e+01
 1.0604133e+01   2.5300019e+01
 1.0609600e+01   2.5464167e+01
 1.0615067e+01   2.5417974e+01
 1.0620533e+01   2.5524890e+01
 1.0626000e+01   2.5554196e+01
 1.0631467e+01   2.5660350e+01
 1.0636933e+01   2.5792539e+01
 1.0642400e+01   2.5926225e+01
 1.0647867e+01   2.6155190e+01
 1.0653333e+01   2.6616591e+01
 1.0658800e+01   2.7364424e+01
 1.0664267e+01   2.8472640e+01
 1.0669733e+01   3.0742577e+01
 1.0675200e+01   3.3368730e+01
 1.0680667e+01   3.8189297e+01
 1.0686133e+01   4.3688343e+01
 1.0691600e+01   5.0151686e+01
 1.0697067e+01   5.7106266e+01
 1.0702533e+01   6.2753744e+01
 1.0708000e+01   6.8017237e+01
 1.0713467e+01   7.0894773e+01
 1.0718933e+01   7.3774541e+01
 1.0724400e+01   7.3975008e+01
 1.0729867e+01   7.3732854e+01
 1.0735333e+01   7.0247981e+01
 1.0740800e+01   6.6096016e+01
 1.0746267e+01   5.9041154e+01
 1.0751733e+01   5.0609838e+01
 1.0757200e+01   4.3261308e+01
 1.0762667e+01   3.7117474e+01
 1.0768133e+01   3.2608250e+01
 1.0773600e+01   2.9877666e+01
 1.0779067e+01   2.8173247e+01
 1.0784533e+01   2.7038741e+01
 1.0790000e+01   2.6488426e+01
 1.0795467e+01   2.6042869e+01
 1.0800933e+01   2.5847752e+01
 1.0806400e+01   2.5765781e+01
 1.0811867e+01   2.5664562e+01
 1.0817333e+01   2.5597482e+01
 1.0822800e+01   2.5604084e+01
 1.0828267e+01   2.5599247e+01
 1.0833733e+01   2.5623900e+01
 1.0839200e+01   2.5559550e+01
 1.0844667e+01   2.5574591e+01
 1.0850133e+01   2.5550739e+01
 1.0855600e+01   2.5473109e+01
 1.0861067e+01   2.5485445e+01
 1.0866533e+01   2.5489590e+01
 1.0872000e+01   2.5485399e+01
 1.0877467e+01   2.5549829e+01
 1.0882933e+01   2.5541513e+01
 1.0888400e+01   2.5581759e+01
 1.0893867e+01   2.5606420e+01
 1.0899333e+01   2.5633614e+01
 1.0904800e+01   2.5532598e+01
 1.0910267e+01   2.5654448e+01
 1.0915733e+01   2.5629517e+01
 1.0921200e+01   2.5676035e+01
 1.0926667e+01   2.5749896e+01
 1.0932133e+01   2.5871207e+01
 1.0937600e+01   2.6072293e+01
 1.0943067e+01   2.6350548e+01
 1.0948533e+01   2.6890217e+01
 1.0954000e+01   2.7639633e+01
 1.0959467e+01   2.8388409e+01
 1.0964933e+01   2.9558422e+01
 1.0970400e+01   3.0765269e+01
 1.0975867e+01   3.2175579e+01
 1.0981333e+01   3.4354718e+01
 1.0986800e+01   3.6022698e+01
 1.0992267e+01   3.7739242e+01
 1.0997733e+01   3.9213658e+01
 1.1003200e+01   4.0078778e+01
 1.1008667e+01   3.9806483e+01
 1.1014133e+01   3.9725089e+01
 1.1019600e+01   3.7999736e+01
 1.1025067e+01   3.7046885e+01
 1.1030533e+01   3.5093639e+01
 1.1036000e+01   3.3722080e+01
 1.1041467e+01   3.1936962e+01
 1.1046933e+01   3.0422323e+01
 1.1052400e+01   2.9091535e+01
 1.1057867e+01   2.8024927e+01
 1.1063333e+01   2.7262766e+01
 1.1068800e+01   2.6789842e+01
 1.1074267e+01   2.6529404e+01
 1.1079733e+01   2.6252910e+01
 1.1085200e+01   2.6194238e+01
 1.1090667e+01   2.6164487e+01
 1.1096133e+01   2.6162799e+01
 1.1101600e+01   2.6166349e+01
 1.1107067e+01   2.6243054e+01
 1.1112533e+01   2.6258367e+01
 1.1118000e+01   2.6426462e+01
 1.1123467e+01   2.6357281e+01
 1.1128933e+01   2.6662071e+01
 1.1134400e+01   2.6800943e+01
 1.1139867e+01   2.8071350e+01
 1.1145333e+01   2.7525329e+01
 1.1150800e+01   2.8820148e+01
 1.1156267e+01   2.8148351e+01
 1.1161733e+01   2.8026505e+01
 1.1167200e+01   2.8762412e+01
 1.1172667e+01   2.9997526e+01
 1.1178133e+01   3.1891115e+01
 1.1183600e+01   3.5149674e+01
 1.1189067e+01   4.0094646e+01
 1.1194533e+01   4.5128736e+01
