PWDR ff_004459_sum_norm_dc_0.tif Azm= 352.fxye Bank 1
2-Theta Angle (Degrees)
Intensity
       1500
 3.0000000e+00   4.6593104e+01
 3.0054667e+00   4.6592412e+01
 3.0109333e+00   4.6348098e+01
 3.0164000e+00   4.6205069e+01
 3.0218667e+00   4.6019191e+01
 3.0273333e+00   4.5732839e+01
 3.0328000e+00   4.5833502e+01
 3.0382667e+00   4.5523573e+01
 3.0437333e+00   4.5245718e+01
 3.0492000e+00   4.5217853e+01
 3.0546667e+00   4.4996066e+01
 3.0601333e+00   4.4573675e+01
 3.0656000e+00   4.4545232e+01
 3.0710667e+00   4.3895073e+01
 3.0765333e+00   4.3986271e+01
 3.0820000e+00   4.3700204e+01
 3.0874667e+00   4.3650739e+01
 3.0929333e+00   4.3441962e+01
 3.0984000e+00   4.3393674e+01
 3.1038667e+00   4.3381679e+01
 3.1093333e+00   4.2980954e+01
 3.1148000e+00   4.2808202e+01
 3.1202667e+00   4.2680625e+01
 3.1257333e+00   4.2515441e+01
 3.1312000e+00   4.2213706e+01
 3.1366667e+00   4.2279604e+01
 3.1421333e+00   4.1894686e+01
 3.1476000e+00   4.2097994e+01
 3.1530667e+00   4.1685372e+01
 3.1585333e+00   4.1627868e+01
 3.1640000e+00   4.1566902e+01
 3.1694667e+00   4.1469646e+01
 3.1749333e+00   4.1429657e+01
 3.1804000e+00   4.1196993e+01
 3.1858667e+00   4.1314170e+01
 3.1913333e+00   4.1276335e+01
 3.1968000e+00   4.0863247e+01
 3.2022667e+00   4.0992550e+01
 3.2077333e+00   4.0724181e+01
 3.2132000e+00   4.0600455e+01
 3.2186667e+00   4.0658561e+01
 3.2241333e+00   4.0441325e+01
 3.2296000e+00   4.0536442e+01
 3.2350667e+00   4.0050861e+01
 3.2405333e+00   4.0205896e+01
 3.2460000e+00   3.9859621e+01
 3.2514667e+00   4.0085825e+01
 3.2569333e+00   3.9845392e+01
 3.2624000e+00   3.9813370e+01
 3.2678667e+00   3.9721878e+01
 3.2733333e+00   3.9815688e+01
 3.2788000e+00   3.9453115e+01
 3.2842667e+00   3.9637564e+01
 3.2897333e+00   3.9207945e+01
 3.2952000e+00   3.9332750e+01
 3.3006667e+00   3.9169898e+01
 3.3061333e+00   3.8909735e+01
 3.3116000e+00   3.9108535e+01
 3.3170667e+00   3.8832471e+01
 3.3225333e+00   3.9163421e+01
 3.3280000e+00   3.9053208e+01
 3.3334667e+00   3.8935754e+01
 3.3389333e+00   3.8871335e+01
 3.3444000e+00   3.8937355e+01
 3.3498667e+00   3.8795674e+01
 3.3553333e+00   3.8722268e+01
 3.3608000e+00   3.8760490e+01
 3.3662667e+00   3.8716818e+01
 3.3717333e+00   3.9196408e+01
 3.3772000e+00   3.8738433e+01
 3.3826667e+00   4.0989655e+01
 3.3881333e+00   3.8732578e+01
 3.3936000e+00   3.8414241e+01
 3.3990667e+00   3.8869498e+01
 3.4045333e+00   3.8376082e+01
 3.4100000e+00   3.8360505e+01
 3.4154667e+00   3.8171415e+01
 3.4209333e+00   3.8021201e+01
 3.4264000e+00   3.8134129e+01
 3.4318667e+00   3.8027721e+01
 3.4373333e+00   3.8110311e+01
 3.4428000e+00   3.7971520e+01
 3.4482667e+00   3.8087187e+01
 3.4537333e+00   3.8046495e+01
 3.4592000e+00   3.8021441e+01
 3.4646667e+00   3.7990499e+01
 3.4701333e+00   3.8194022e+01
 3.4756000e+00   3.8190612e+01
 3.4810667e+00   3.8307469e+01
 3.4865333e+00   3.8161331e+01
 3.4920000e+00   3.8217979e+01
 3.4974667e+00   3.7965142e+01
 3.5029333e+00   3.8128799e+01
 3.5084000e+00   3.7920673e+01
 3.5138667e+00   3.8228121e+01
 3.5193333e+00   3.8112567e+01
 3.5248000e+00   3.8212831e+01
 3.5302667e+00   3.8038599e+01
 3.5357333e+00   3.8093832e+01
 3.5412000e+00   3.8074305e+01
 3.5466667e+00   3.8163088e+01
 3.5521333e+00   3.8250517e+01
 3.5576000e+00   3.8171993e+01
 3.5630667e+00   3.8210636e+01
 3.5685333e+00   3.8312733e+01
 3.5740000e+00   3.8003186e+01
 3.5794667e+00   3.8084727e+01
 3.5849333e+00   3.8273399e+01
 3.5904000e+00   3.8190090e+01
 3.5958667e+00   3.8126994e+01
 3.6013333e+00   3.8210323e+01
 3.6068000e+00   3.8051512e+01
 3.6122667e+00   3.8168662e+01
 3.6177333e+00   3.7829784e+01
 3.6232000e+00   3.8138570e+01
 3.6286667e+00   3.8016654e+01
 3.6341333e+00   3.8060096e+01
 3.6396000e+00   3.8158991e+01
 3.6450667e+00   3.8226667e+01
 3.6505333e+00   3.8067677e+01
 3.6560000e+00   3.8287264e+01
 3.6614667e+00   3.8392141e+01
 3.6669333e+00   3.8538122e+01
 3.6724000e+00   3.8548586e+01
 3.6778667e+00   3.8643820e+01
 3.6833333e+00   3.8869524e+01
 3.6888000e+00   3.8751406e+01
 3.6942667e+00   3.8924330e+01
 3.6997333e+00   3.8851700e+01
 3.7052000e+00   3.9027604e+01
 3.7106667e+00   3.8944901e+01
 3.7161333e+00   3.9052362e+01
 3.7216000e+00   3.9087090e+01
 3.7270667e+00   3.8991778e+01
 3.7325333e+00   3.9036985e+01
 3.7380000e+00   3.9171199e+01
 3.7434667e+00   3.9089322e+01
 3.7489333e+00   3.9162773e+01
 3.7544000e+00   3.9387781e+01
 3.7598667e+00   3.9037036e+01
 3.7653333e+00   3.9401177e+01
 3.7708000e+00   3.9120575e+01
 3.7762667e+00   3.9242957e+01
 3.7817333e+00   3.9451121e+01
 3.7872000e+00   3.9360947e+01
 3.7926667e+00   3.9725376e+01
 3.7981333e+00   3.9793921e+01
 3.8036000e+00   4.0046824e+01
 3.8090667e+00   3.9966506e+01
 3.8145333e+00   4.0146408e+01
 3.8200000e+00   4.0226902e+01
 3.8254667e+00   4.0077979e+01
 3.8309333e+00   4.0216539e+01
 3.8364000e+00   4.0179532e+01
 3.8418667e+00   4.0380937e+01
 3.8473333e+00   4.0417085e+01
 3.8528000e+00   4.0702359e+01
 3.8582667e+00   4.0867478e+01
 3.8637333e+00   4.1047297e+01
 3.8692000e+00   4.1189708e+01
 3.8746667e+00   4.1213683e+01
 3.8801333e+00   4.1239086e+01
 3.8856000e+00   4.1439939e+01
 3.8910667e+00   4.1288740e+01
 3.8965333e+00   4.1891379e+01
 3.9020000e+00   4.1584662e+01
 3.9074667e+00   4.1695484e+01
 3.9129333e+00   4.1835421e+01
 3.9184000e+00   4.1860421e+01
 3.9238667e+00   4.1864379e+01
 3.9293333e+00   4.1998854e+01
 3.9348000e+00   4.1986049e+01
 3.9402667e+00   4.2042939e+01
 3.9457333e+00   4.2031556e+01
 3.9512000e+00   4.2150611e+01
 3.9566667e+00   4.2392353e+01
 3.9621333e+00   4.2390682e+01
 3.9676000e+00   4.2522414e+01
 3.9730667e+00   4.2647860e+01
 3.9785333e+00   4.2746648e+01
 3.9840000e+00   4.2565803e+01
 3.9894667e+00   4.2991157e+01
 3.9949333e+00   4.2855283e+01
 4.0004000e+00   4.3043952e+01
 4.0058667e+00   4.2987675e+01
 4.0113333e+00   4.3186257e+01
 4.0168000e+00   4.3253341e+01
 4.0222667e+00   4.3410285e+01
 4.0277333e+00   4.3705872e+01
 4.0332000e+00   4.4055914e+01
 4.0386667e+00   4.4057338e+01
 4.0441333e+00   4.5187334e+01
 4.0496000e+00   4.4321875e+01
 4.0550667e+00   4.4608666e+01
 4.0605333e+00   4.4775044e+01
 4.0660000e+00   4.4996008e+01
 4.0714667e+00   4.5958133e+01
 4.0769333e+00   4.6623140e+01
 4.0824000e+00   4.5903104e+01
 4.0878667e+00   4.6895012e+01
 4.0933333e+00   4.6566217e+01
 4.0988000e+00   4.7015881e+01
 4.1042667e+00   4.6999472e+01
 4.1097333e+00   4.7307238e+01
 4.1152000e+00   4.7465604e+01
 4.1206667e+00   4.7477980e+01
 4.1261333e+00   4.7854304e+01
 4.1316000e+00   4.7699429e+01
 4.1370667e+00   4.9577288e+01
 4.1425333e+00   4.7445780e+01
 4.1480000e+00   4.7271369e+01
 4.1534667e+00   4.7181488e+01
 4.1589333e+00   4.7103056e+01
 4.1644000e+00   4.7236265e+01
 4.1698667e+00   4.7179784e+01
 4.1753333e+00   4.7268557e+01
 4.1808000e+00   4.7496604e+01
 4.1862667e+00   4.7244016e+01
 4.1917333e+00   4.7656556e+01
 4.1972000e+00   4.7493498e+01
 4.2026667e+00   4.7811466e+01
 4.2081333e+00   4.7795834e+01
 4.2136000e+00   4.8034449e+01
 4.2190667e+00   4.8051981e+01
 4.2245333e+00   4.8089054e+01
 4.2300000e+00   4.8142833e+01
 4.2354667e+00   4.8301540e+01
 4.2409333e+00   4.8152972e+01
 4.2464000e+00   4.8586841e+01
 4.2518667e+00   4.8415514e+01
 4.2573333e+00   4.8796406e+01
 4.2628000e+00   4.9553321e+01
 4.2682667e+00   4.9118294e+01
 4.2737333e+00   4.9995133e+01
 4.2792000e+00   4.9615102e+01
 4.2846667e+00   4.9697101e+01
 4.2901333e+00   4.9916360e+01
 4.2956000e+00   4.9877301e+01
 4.3010667e+00   5.0279662e+01
 4.3065333e+00   5.0210356e+01
 4.3120000e+00   5.0466762e+01
 4.3174667e+00   5.0798660e+01
 4.3229333e+00   5.0889287e+01
 4.3284000e+00   5.1097010e+01
 4.3338667e+00   5.1394773e+01
 4.3393333e+00   5.1939898e+01
 4.3448000e+00   5.1793767e+01
 4.3502667e+00   5.2366826e+01
 4.3557333e+00   5.2643293e+01
 4.3612000e+00   5.3023877e+01
 4.3666667e+00   5.3128657e+01
 4.3721333e+00   5.3976962e+01
 4.3776000e+00   5.3760852e+01
 4.3830667e+00   5.4871319e+01
 4.3885333e+00   5.5002452e+01
 4.3940000e+00   5.5833202e+01
 4.3994667e+00   5.6355001e+01
 4.4049333e+00   5.6820962e+01
 4.4104000e+00   5.7479254e+01
 4.4158667e+00   5.8018873e+01
 4.4213333e+00   5.8799534e+01
 4.4268000e+00   5.8770565e+01
 4.4322667e+00   5.9754841e+01
 4.4377333e+00   5.9994869e+01
 4.4432000e+00   6.0646016e+01
 4.4486667e+00   6.1374388e+01
 4.4541333e+00   6.2137512e+01
 4.4596000e+00   6.3481921e+01
 4.4650667e+00   6.5358605e+01
 4.4705333e+00   6.7776334e+01
 4.4760000e+00   7.1524143e+01
 4.4814667e+00   7.9062315e+01
 4.4869333e+00   8.5339265e+01
 4.4924000e+00   1.0087941e+02
 4.4978667e+00   1.3368463e+02
 4.5033333e+00   1.6217083e+02
 4.5088000e+00   1.9483546e+02
 4.5142667e+00   2.2024357e+02
 4.5197333e+00   2.0550439e+02
 4.5252000e+00   1.7416852e+02
 4.5306667e+00   1.7626313e+02
 4.5361333e+00   1.4698638e+02
 4.5416000e+00   1.2362038e+02
 4.5470667e+00   1.0826324e+02
 4.5525333e+00   1.2118851e+02
 4.5580000e+00   8.3610345e+01
 4.5634667e+00   8.3608314e+01
 4.5689333e+00   7.0675214e+01
 4.5744000e+00   6.7038846e+01
 4.5798667e+00   6.4506637e+01
 4.5853333e+00   6.3324554e+01
 4.5908000e+00   6.2400030e+01
 4.5962667e+00   6.1739320e+01
 4.6017333e+00   6.1268254e+01
 4.6072000e+00   6.1204836e+01
 4.6126667e+00   6.0802278e+01
 4.6181333e+00   6.1352028e+01
 4.6236000e+00   6.1465472e+01
 4.6290667e+00   6.1796845e+01
 4.6345333e+00   6.2481666e+01
 4.6400000e+00   6.3252046e+01
 4.6454667e+00   6.3941885e+01
 4.6509333e+00   6.4720056e+01
 4.6564000e+00   6.4638827e+01
 4.6618667e+00   6.4637351e+01
 4.6673333e+00   6.3625226e+01
 4.6728000e+00   6.3571563e+01
 4.6782667e+00   6.2751883e+01
 4.6837333e+00   6.2211525e+01
 4.6892000e+00   6.1546785e+01
 4.6946667e+00   6.1430816e+01
 4.7001333e+00   6.0703369e+01
 4.7056000e+00   6.0659198e+01
 4.7110667e+00   6.0293279e+01
 4.7165333e+00   6.0411385e+01
 4.7220000e+00   6.0305536e+01
 4.7274667e+00   6.0126555e+01
 4.7329333e+00   6.0213014e+01
 4.7384000e+00   5.9777846e+01
 4.7438667e+00   5.9733888e+01
 4.7493333e+00   5.9988849e+01
 4.7548000e+00   6.0059571e+01
 4.7602667e+00   5.9117819e+01
 4.7657333e+00   6.2718115e+01
 4.7712000e+00   6.2112026e+01
 4.7766667e+00   6.1825371e+01
 4.7821333e+00   6.1991486e+01
 4.7876000e+00   5.9424142e+01
 4.7930667e+00   5.9036763e+01
 4.7985333e+00   5.9373337e+01
 4.8040000e+00   5.9216982e+01
 4.8094667e+00   5.9198118e+01
 4.8149333e+00   5.9782880e+01
 4.8204000e+00   5.9782086e+01
 4.8258667e+00   6.0414630e+01
 4.8313333e+00   6.0188009e+01
 4.8368000e+00   6.1249053e+01
 4.8422667e+00   6.0713990e+01
 4.8477333e+00   6.1963441e+01
 4.8532000e+00   6.1638231e+01
 4.8586667e+00   6.2777610e+01
 4.8641333e+00   6.2548920e+01
 4.8696000e+00   6.4413139e+01
 4.8750667e+00   6.3390959e+01
 4.8805333e+00   6.5687750e+01
 4.8860000e+00   6.5060469e+01
 4.8914667e+00   6.7532183e+01
 4.8969333e+00   6.8372422e+01
 4.9024000e+00   7.1437970e+01
 4.9078667e+00   7.4946699e+01
 4.9133333e+00   8.1181907e+01
 4.9188000e+00   9.3712517e+01
 4.9242667e+00   1.1496803e+02
 4.9297333e+00   1.3824981e+02
 4.9352000e+00   1.5577813e+02
 4.9406667e+00   2.9399124e+02
 4.9461333e+00   2.1371829e+02
 4.9516000e+00   4.4115856e+02
 4.9570667e+00   3.2164403e+02
 4.9625333e+00   5.0388134e+02
 4.9680000e+00   4.2272555e+02
 4.9734667e+00   4.3084816e+02
 4.9789333e+00   4.7559833e+02
 4.9844000e+00   3.9618411e+02
 4.9898667e+00   4.8598266e+02
 4.9953333e+00   3.6977984e+02
 5.0008000e+00   2.8976529e+02
 5.0062667e+00   2.4658859e+02
 5.0117333e+00   1.7470614e+02
 5.0172000e+00   1.5689609e+02
 5.0226667e+00   1.1226249e+02
 5.0281333e+00   9.6409551e+01
 5.0336000e+00   8.4186090e+01
 5.0390667e+00   7.5178555e+01
 5.0445333e+00   7.3073032e+01
 5.0500000e+00   6.9737511e+01
 5.0554667e+00   6.8617648e+01
 5.0609333e+00   6.6852700e+01
 5.0664000e+00   6.5896249e+01
 5.0718667e+00   6.5603854e+01
 5.0773333e+00   6.4163023e+01
 5.0828000e+00   6.3624264e+01
 5.0882667e+00   6.2677549e+01
 5.0937333e+00   6.2179153e+01
 5.0992000e+00   6.1145624e+01
 5.1046667e+00   6.0607506e+01
 5.1101333e+00   6.0143333e+01
 5.1156000e+00   5.9533686e+01
 5.1210667e+00   5.8786134e+01
 5.1265333e+00   5.8616955e+01
 5.1320000e+00   5.7539080e+01
 5.1374667e+00   5.7677306e+01
 5.1429333e+00   5.6923307e+01
 5.1484000e+00   5.6626968e+01
 5.1538667e+00   5.6401292e+01
 5.1593333e+00   5.5951616e+01
 5.1648000e+00   5.6228950e+01
 5.1702667e+00   5.5036811e+01
 5.1757333e+00   5.5394938e+01
 5.1812000e+00   5.4633267e+01
 5.1866667e+00   5.4450852e+01
 5.1921333e+00   5.4145466e+01
 5.1976000e+00   5.3911619e+01
 5.2030667e+00   5.3455221e+01
 5.2085333e+00   5.3703968e+01
 5.2140000e+00   5.2882427e+01
 5.2194667e+00   5.3284225e+01
 5.2249333e+00   5.2786979e+01
 5.2304000e+00   5.2639088e+01
 5.2358667e+00   5.2250794e+01
 5.2413333e+00   5.2430808e+01
 5.2468000e+00   5.1887796e+01
 5.2522667e+00   5.1816108e+01
 5.2577333e+00   5.1914659e+01
 5.2632000e+00   5.1433439e+01
 5.2686667e+00   5.1547376e+01
 5.2741333e+00   5.1032481e+01
 5.2796000e+00   5.0933770e+01
 5.2850667e+00   5.0696061e+01
 5.2905333e+00   5.0605124e+01
 5.2960000e+00   5.0251282e+01
 5.3014667e+00   5.0341169e+01
 5.3069333e+00   5.0188972e+01
 5.3124000e+00   4.9953624e+01
 5.3178667e+00   5.0007369e+01
 5.3233333e+00   4.9616324e+01
 5.3288000e+00   4.9794296e+01
 5.3342667e+00   4.9245473e+01
 5.3397333e+00   4.9546501e+01
 5.3452000e+00   4.8898980e+01
 5.3506667e+00   4.9312873e+01
 5.3561333e+00   4.8949544e+01
 5.3616000e+00   4.9644135e+01
 5.3670667e+00   4.9066671e+01
 5.3725333e+00   5.5789517e+01
 5.3780000e+00   4.9924210e+01
 5.3834667e+00   5.0553177e+01
 5.3889333e+00   4.9315393e+01
 5.3944000e+00   4.8640601e+01
 5.3998667e+00   4.8304860e+01
 5.4053333e+00   4.8239021e+01
 5.4108000e+00   4.8000392e+01
 5.4162667e+00   4.8044857e+01
 5.4217333e+00   4.8021727e+01
 5.4272000e+00   4.7723722e+01
 5.4326667e+00   4.7813360e+01
 5.4381333e+00   4.7575734e+01
 5.4436000e+00   4.7562639e+01
 5.4490667e+00   4.7396098e+01
 5.4545333e+00   4.7541518e+01
 5.4600000e+00   4.6900578e+01
 5.4654667e+00   4.7367713e+01
 5.4709333e+00   4.6885382e+01
 5.4764000e+00   4.7013455e+01
 5.4818667e+00   4.6874650e+01
 5.4873333e+00   4.6770271e+01
 5.4928000e+00   4.6720559e+01
 5.4982667e+00   4.6835687e+01
 5.5037333e+00   4.6640632e+01
 5.5092000e+00   4.6650881e+01
 5.5146667e+00   4.6887660e+01
 5.5201333e+00   4.6519907e+01
 5.5256000e+00   4.6725534e+01
 5.5310667e+00   4.6549827e+01
 5.5365333e+00   4.6793078e+01
 5.5420000e+00   4.6471026e+01
 5.5474667e+00   4.6617635e+01
 5.5529333e+00   4.6470921e+01
 5.5584000e+00   4.6611804e+01
 5.5638667e+00   4.6461930e+01
 5.5693333e+00   4.7108650e+01
 5.5748000e+00   4.7586473e+01
 5.5802667e+00   4.6754913e+01
 5.5857333e+00   4.7037841e+01
 5.5912000e+00   4.6952869e+01
 5.5966667e+00   4.6893938e+01
 5.6021333e+00   4.6907562e+01
 5.6076000e+00   4.7017027e+01
 5.6130667e+00   4.6826669e+01
 5.6185333e+00   4.7287565e+01
 5.6240000e+00   4.6794683e+01
 5.6294667e+00   4.7304131e+01
 5.6349333e+00   4.7050126e+01
 5.6404000e+00   4.7427309e+01
 5.6458667e+00   4.7308805e+01
 5.6513333e+00   4.7984278e+01
 5.6568000e+00   4.7924366e+01
 5.6622667e+00   4.8535733e+01
 5.6677333e+00   5.0363379e+01
 5.6732000e+00   5.0663708e+01
 5.6786667e+00   6.2631945e+01
 5.6841333e+00   6.8040072e+01
 5.6896000e+00   6.8542325e+01
 5.6950667e+00   7.7520653e+01
 5.7005333e+00   1.1550165e+02
 5.7060000e+00   1.0508228e+02
 5.7114667e+00   1.3847011e+02
 5.7169333e+00   1.4136542e+02
 5.7224000e+00   1.5502120e+02
 5.7278667e+00   1.4649672e+02
 5.7333333e+00   1.8630980e+02
 5.7388000e+00   1.5605129e+02
 5.7442667e+00   1.9136026e+02
 5.7497333e+00   1.7485955e+02
 5.7552000e+00   1.6538180e+02
 5.7606667e+00   1.7846859e+02
 5.7661333e+00   1.6289451e+02
 5.7716000e+00   1.3262328e+02
 5.7770667e+00   1.4272229e+02
 5.7825333e+00   9.1416948e+01
 5.7880000e+00   9.8647250e+01
 5.7934667e+00   6.9960166e+01
 5.7989333e+00   6.3493669e+01
 5.8044000e+00   5.4101432e+01
 5.8098667e+00   5.2195787e+01
 5.8153333e+00   4.8644412e+01
 5.8208000e+00   4.8399887e+01
 5.8262667e+00   4.6821316e+01
 5.8317333e+00   4.6806435e+01
 5.8372000e+00   4.5807016e+01
 5.8426667e+00   4.6146695e+01
 5.8481333e+00   4.5275000e+01
 5.8536000e+00   4.5653815e+01
 5.8590667e+00   4.4514626e+01
 5.8645333e+00   4.5210916e+01
 5.8700000e+00   4.4256388e+01
 5.8754667e+00   4.4624012e+01
 5.8809333e+00   4.3745565e+01
 5.8864000e+00   4.4316695e+01
 5.8918667e+00   4.3390993e+01
 5.8973333e+00   4.4050009e+01
 5.9028000e+00   4.3897563e+01
 5.9082667e+00   4.4022629e+01
 5.9137333e+00   4.3192395e+01
 5.9192000e+00   4.3246606e+01
 5.9246667e+00   4.2750565e+01
 5.9301333e+00   4.2896679e+01
 5.9356000e+00   4.2327350e+01
 5.9410667e+00   4.2569360e+01
 5.9465333e+00   4.2246080e+01
 5.9520000e+00   4.2270877e+01
 5.9574667e+00   4.2115261e+01
 5.9629333e+00   4.2054320e+01
 5.9684000e+00   4.2070501e+01
 5.9738667e+00   4.1819803e+01
 5.9793333e+00   4.1999439e+01
 5.9848000e+00   4.1709440e+01
 5.9902667e+00   4.2017291e+01
 5.9957333e+00   4.1575783e+01
 6.0012000e+00   4.2062620e+01
 6.0066667e+00   4.1681074e+01
 6.0121333e+00   4.2041175e+01
 6.0176000e+00   4.1491266e+01
 6.0230667e+00   4.2122867e+01
 6.0285333e+00   4.1543403e+01
 6.0340000e+00   4.1903961e+01
 6.0394667e+00   4.1514825e+01
 6.0449333e+00   4.1715931e+01
 6.0504000e+00   4.1514690e+01
 6.0558667e+00   4.1694323e+01
 6.0613333e+00   4.1488261e+01
 6.0668000e+00   4.1631247e+01
 6.0722667e+00   4.1290818e+01
 6.0777333e+00   4.1482135e+01
 6.0832000e+00   4.1238406e+01
 6.0886667e+00   4.1105445e+01
 6.0941333e+00   4.1117148e+01
 6.0996000e+00   4.1059458e+01
 6.1050667e+00   4.1111307e+01
 6.1105333e+00   4.0851380e+01
 6.1160000e+00   4.1207440e+01
 6.1214667e+00   4.0881278e+01
 6.1269333e+00   4.0860486e+01
 6.1324000e+00   4.1009466e+01
 6.1378667e+00   4.0486585e+01
 6.1433333e+00   4.0572873e+01
 6.1488000e+00   4.0455830e+01
 6.1542667e+00   4.0295358e+01
 6.1597333e+00   4.0278721e+01
 6.1652000e+00   4.0221619e+01
 6.1706667e+00   4.0245701e+01
 6.1761333e+00   4.0168871e+01
 6.1816000e+00   4.0061945e+01
 6.1870667e+00   4.0255148e+01
 6.1925333e+00   4.0119384e+01
 6.1980000e+00   3.9987367e+01
 6.2034667e+00   4.0238020e+01
 6.2089333e+00   4.0135317e+01
 6.2144000e+00   4.0081699e+01
 6.2198667e+00   4.0367280e+01
 6.2253333e+00   4.0317269e+01
 6.2308000e+00   4.0375448e+01
 6.2362667e+00   4.0437427e+01
 6.2417333e+00   4.0437497e+01
 6.2472000e+00   4.0334345e+01
 6.2526667e+00   4.0289517e+01
 6.2581333e+00   4.0331866e+01
 6.2636000e+00   4.0322895e+01
 6.2690667e+00   4.0384441e+01
 6.2745333e+00   4.0312482e+01
 6.2800000e+00   4.0358674e+01
 6.2854667e+00   4.0426025e+01
 6.2909333e+00   4.0520583e+01
 6.2964000e+00   4.0337199e+01
 6.3018667e+00   4.0420468e+01
 6.3073333e+00   4.0397391e+01
 6.3128000e+00   4.0351487e+01
 6.3182667e+00   4.0564940e+01
 6.3237333e+00   4.0434298e+01
 6.3292000e+00   4.0737028e+01
 6.3346667e+00   4.0653309e+01
 6.3401333e+00   4.1177212e+01
 6.3456000e+00   4.1369632e+01
 6.3510667e+00   4.2685199e+01
 6.3565333e+00   4.3484535e+01
 6.3620000e+00   4.7998095e+01
 6.3674667e+00   4.8760715e+01
 6.3729333e+00   5.6348689e+01
 6.3784000e+00   4.8106415e+01
 6.3838667e+00   6.3045389e+01
 6.3893333e+00   5.0133384e+01
 6.3948000e+00   5.3621729e+01
 6.4002667e+00   5.0104017e+01
 6.4057333e+00   5.2049267e+01
 6.4112000e+00   4.9793247e+01
 6.4166667e+00   6.0543368e+01
 6.4221333e+00   4.9689535e+01
 6.4276000e+00   4.8292793e+01
 6.4330667e+00   4.5090037e+01
 6.4385333e+00   4.1770752e+01
 6.4440000e+00   4.1633917e+01
 6.4494667e+00   4.0990593e+01
 6.4549333e+00   4.0647401e+01
 6.4604000e+00   4.0353894e+01
 6.4658667e+00   4.0495703e+01
 6.4713333e+00   3.9885938e+01
 6.4768000e+00   4.0174358e+01
 6.4822667e+00   3.9622673e+01
 6.4877333e+00   3.9841802e+01
 6.4932000e+00   3.9399250e+01
 6.4986667e+00   3.9775522e+01
 6.5041333e+00   3.9527316e+01
 6.5096000e+00   3.9684179e+01
 6.5150667e+00   3.9597250e+01
 6.5205333e+00   3.9540887e+01
 6.5260000e+00   3.9415314e+01
 6.5314667e+00   3.9328859e+01
 6.5369333e+00   3.9344944e+01
 6.5424000e+00   3.9344597e+01
 6.5478667e+00   3.9223309e+01
 6.5533333e+00   3.9092219e+01
 6.5588000e+00   3.9432812e+01
 6.5642667e+00   3.8975549e+01
 6.5697333e+00   3.9274285e+01
 6.5752000e+00   3.9124638e+01
 6.5806667e+00   3.9300520e+01
 6.5861333e+00   3.9030134e+01
 6.5916000e+00   3.9395477e+01
 6.5970667e+00   3.9008224e+01
 6.6025333e+00   3.9293739e+01
 6.6080000e+00   3.9073978e+01
 6.6134667e+00   3.9346434e+01
 6.6189333e+00   3.9153113e+01
 6.6244000e+00   3.9440707e+01
 6.6298667e+00   3.9198433e+01
 6.6353333e+00   3.9362196e+01
 6.6408000e+00   3.9301138e+01
 6.6462667e+00   3.9031997e+01
 6.6517333e+00   3.9418951e+01
 6.6572000e+00   3.9177778e+01
 6.6626667e+00   3.9406238e+01
 6.6681333e+00   3.9103661e+01
 6.6736000e+00   3.9400258e+01
 6.6790667e+00   3.9261041e+01
 6.6845333e+00   3.9554576e+01
 6.6900000e+00   3.9211733e+01
 6.6954667e+00   3.9516022e+01
 6.7009333e+00   3.9370643e+01
 6.7064000e+00   3.9316548e+01
 6.7118667e+00   3.9422605e+01
 6.7173333e+00   3.9414484e+01
 6.7228000e+00   3.9210200e+01
 6.7282667e+00   3.9498458e+01
 6.7337333e+00   3.9399698e+01
 6.7392000e+00   3.9348665e+01
 6.7446667e+00   3.9636565e+01
 6.7501333e+00   3.9460943e+01
 6.7556000e+00   3.9490366e+01
 6.7610667e+00   3.9743407e+01
 6.7665333e+00   3.9690569e+01
 6.7720000e+00   3.9577728e+01
 6.7774667e+00   3.9634932e+01
 6.7829333e+00   3.9768496e+01
 6.7884000e+00   3.9756386e+01
 6.7938667e+00   3.9719828e+01
 6.7993333e+00   4.0008420e+01
 6.8048000e+00   3.9814387e+01
 6.8102667e+00   3.9772399e+01
 6.8157333e+00   3.9928550e+01
 6.8212000e+00   4.0022186e+01
 6.8266667e+00   3.9854872e+01
 6.8321333e+00   4.0422237e+01
 6.8376000e+00   3.9834273e+01
 6.8430667e+00   4.0331066e+01
 6.8485333e+00   4.0289274e+01
 6.8540000e+00   4.0206428e+01
 6.8594667e+00   4.0250561e+01
 6.8649333e+00   4.0296453e+01
 6.8704000e+00   4.0284092e+01
 6.8758667e+00   4.0253982e+01
 6.8813333e+00   4.0223287e+01
 6.8868000e+00   4.0408732e+01
 6.8922667e+00   4.0220747e+01
 6.8977333e+00   4.0193232e+01
 6.9032000e+00   4.0443403e+01
 6.9086667e+00   4.0290848e+01
 6.9141333e+00   4.0227284e+01
 6.9196000e+00   4.0366242e+01
 6.9250667e+00   4.0571902e+01
 6.9305333e+00   4.0461710e+01
 6.9360000e+00   4.0466577e+01
 6.9414667e+00   4.0470721e+01
 6.9469333e+00   4.0581462e+01
 6.9524000e+00   4.0509245e+01
 6.9578667e+00   4.0745250e+01
 6.9633333e+00   4.0700238e+01
 6.9688000e+00   4.0723281e+01
 6.9742667e+00   4.0883517e+01
 6.9797333e+00   4.0772133e+01
 6.9852000e+00   4.0919710e+01
 6.9906667e+00   4.1015499e+01
 6.9961333e+00   4.0894731e+01
 7.0016000e+00   4.1212782e+01
 7.0070667e+00   4.1296870e+01
 7.0125333e+00   4.1361060e+01
 7.0180000e+00   4.1452677e+01
 7.0234667e+00   4.1341333e+01
 7.0289333e+00   4.1471354e+01
 7.0344000e+00   4.1319698e+01
 7.0398667e+00   4.1308220e+01
 7.0453333e+00   4.1487360e+01
 7.0508000e+00   4.1365492e+01
 7.0562667e+00   4.1391101e+01
 7.0617333e+00   4.1608478e+01
 7.0672000e+00   4.1732806e+01
 7.0726667e+00   4.1910575e+01
 7.0781333e+00   4.1695098e+01
 7.0836000e+00   4.2122777e+01
 7.0890667e+00   4.2300206e+01
 7.0945333e+00   4.2052252e+01
 7.1000000e+00   4.2513679e+01
 7.1054667e+00   4.2493234e+01
 7.1109333e+00   4.2202582e+01
 7.1164000e+00   4.2883155e+01
 7.1218667e+00   4.2553542e+01
 7.1273333e+00   4.2569743e+01
 7.1328000e+00   4.3023007e+01
 7.1382667e+00   4.2731983e+01
 7.1437333e+00   4.2859053e+01
 7.1492000e+00   4.3076805e+01
 7.1546667e+00   4.2928411e+01
 7.1601333e+00   4.2990505e+01
 7.1656000e+00   4.3212380e+01
 7.1710667e+00   4.3335638e+01
 7.1765333e+00   4.3225129e+01
 7.1820000e+00   4.3346584e+01
 7.1874667e+00   4.3675209e+01
 7.1929333e+00   4.4186465e+01
 7.1984000e+00   4.3801820e+01
 7.2038667e+00   4.3717004e+01
 7.2093333e+00   4.3806252e+01
 7.2148000e+00   4.3342170e+01
 7.2202667e+00   4.3437482e+01
 7.2257333e+00   4.3614487e+01
 7.2312000e+00   4.3490133e+01
 7.2366667e+00   4.3745150e+01
 7.2421333e+00   4.3694202e+01
 7.2476000e+00   4.3966408e+01
 7.2530667e+00   4.3703894e+01
 7.2585333e+00   4.3915308e+01
 7.2640000e+00   4.3681874e+01
 7.2694667e+00   4.4064932e+01
 7.2749333e+00   4.3943318e+01
 7.2804000e+00   4.4216682e+01
 7.2858667e+00   4.4178033e+01
 7.2913333e+00   4.4535189e+01
 7.2968000e+00   4.4362388e+01
 7.3022667e+00   4.4803714e+01
 7.3077333e+00   4.4573525e+01
 7.3132000e+00   4.4792153e+01
 7.3186667e+00   4.4847666e+01
 7.3241333e+00   4.4957622e+01
 7.3296000e+00   4.4875623e+01
 7.3350667e+00   4.5222390e+01
 7.3405333e+00   4.4856661e+01
 7.3460000e+00   4.5428903e+01
 7.3514667e+00   4.5156694e+01
 7.3569333e+00   4.5542667e+01
 7.3624000e+00   4.5325281e+01
 7.3678667e+00   4.5823401e+01
 7.3733333e+00   4.5285352e+01
 7.3788000e+00   4.5700368e+01
 7.3842667e+00   4.5645371e+01
 7.3897333e+00   4.5741194e+01
 7.3952000e+00   4.5838549e+01
 7.4006667e+00   4.6130723e+01
 7.4061333e+00   4.6075367e+01
 7.4116000e+00   4.6424002e+01
 7.4170667e+00   4.6448746e+01
 7.4225333e+00   4.6593896e+01
 7.4280000e+00   4.6748883e+01
 7.4334667e+00   4.6608973e+01
 7.4389333e+00   4.6880153e+01
 7.4444000e+00   4.7144234e+01
 7.4498667e+00   4.7143231e+01
 7.4553333e+00   4.7459976e+01
 7.4608000e+00   4.7770048e+01
 7.4662667e+00   4.7397786e+01
 7.4717333e+00   4.7853393e+01
 7.4772000e+00   4.7561136e+01
 7.4826667e+00   4.7690942e+01
 7.4881333e+00   4.7926998e+01
 7.4936000e+00   4.8047370e+01
 7.4990667e+00   4.7856605e+01
 7.5045333e+00   4.8365270e+01
 7.5100000e+00   4.8456485e+01
 7.5154667e+00   4.8342440e+01
 7.5209333e+00   4.8517142e+01
 7.5264000e+00   4.8659999e+01
 7.5318667e+00   4.8750102e+01
 7.5373333e+00   4.9108177e+01
 7.5428000e+00   4.9242504e+01
 7.5482667e+00   4.8944856e+01
 7.5537333e+00   4.9505094e+01
 7.5592000e+00   4.9499810e+01
 7.5646667e+00   4.9575893e+01
 7.5701333e+00   4.9924051e+01
 7.5756000e+00   4.9997675e+01
 7.5810667e+00   5.0179131e+01
 7.5865333e+00   5.0488147e+01
 7.5920000e+00   5.0485389e+01
 7.5974667e+00   5.0917924e+01
 7.6029333e+00   5.0753316e+01
 7.6084000e+00   5.1183032e+01
 7.6138667e+00   5.1279089e+01
 7.6193333e+00   5.1789310e+01
 7.6248000e+00   5.1607929e+01
 7.6302667e+00   5.2082768e+01
 7.6357333e+00   5.2395271e+01
 7.6412000e+00   5.2417385e+01
 7.6466667e+00   5.2916779e+01
 7.6521333e+00   5.3215457e+01
 7.6576000e+00   5.3284588e+01
 7.6630667e+00   5.3507028e+01
 7.6685333e+00   5.4221213e+01
 7.6740000e+00   5.4305755e+01
 7.6794667e+00   5.4937115e+01
 7.6849333e+00   5.4947492e+01
 7.6904000e+00   5.6140762e+01
 7.6958667e+00   5.5829886e+01
 7.7013333e+00   5.6068391e+01
 7.7068000e+00   5.7188419e+01
 7.7122667e+00   5.6790032e+01
 7.7177333e+00   5.8387995e+01
 7.7232000e+00   5.8695911e+01
 7.7286667e+00   5.8965468e+01
 7.7341333e+00   6.0927818e+01
 7.7396000e+00   6.1114260e+01
 7.7450667e+00   6.3841519e+01
 7.7505333e+00   6.6766769e+01
 7.7560000e+00   6.8101552e+01
 7.7614667e+00   7.4802489e+01
 7.7669333e+00   8.0816788e+01
 7.7724000e+00   8.3122330e+01
 7.7778667e+00   8.5750594e+01
 7.7833333e+00   9.1061081e+01
 7.7888000e+00   9.6485470e+01
 7.7942667e+00   9.5349238e+01
 7.7997333e+00   1.0337899e+02
 7.8052000e+00   1.1321092e+02
 7.8106667e+00   1.0946570e+02
 7.8161333e+00   1.2044446e+02
 7.8216000e+00   1.3099432e+02
 7.8270667e+00   1.1290848e+02
 7.8325333e+00   1.3914390e+02
 7.8380000e+00   1.1425113e+02
 7.8434667e+00   1.3166633e+02
 7.8489333e+00   1.0551151e+02
 7.8544000e+00   1.2037404e+02
 7.8598667e+00   8.6979095e+01
 7.8653333e+00   8.8242351e+01
 7.8708000e+00   7.3851676e+01
 7.8762667e+00   6.9674556e+01
 7.8817333e+00   6.5467592e+01
 7.8872000e+00   6.4663785e+01
 7.8926667e+00   6.1767090e+01
 7.8981333e+00   6.2393082e+01
 7.9036000e+00   6.0939771e+01
 7.9090667e+00   6.0310183e+01
 7.9145333e+00   6.0728998e+01
 7.9200000e+00   6.0285531e+01
 7.9254667e+00   5.9132848e+01
 7.9309333e+00   5.9585705e+01
 7.9364000e+00   5.8791746e+01
 7.9418667e+00   5.8310893e+01
 7.9473333e+00   5.8585206e+01
 7.9528000e+00   5.7577066e+01
 7.9582667e+00   5.7714371e+01
 7.9637333e+00   5.7418315e+01
 7.9692000e+00   5.7023199e+01
 7.9746667e+00   5.6708009e+01
 7.9801333e+00   5.6645130e+01
 7.9856000e+00   5.6323906e+01
 7.9910667e+00   5.6080072e+01
 7.9965333e+00   5.5967340e+01
 8.0020000e+00   5.6005090e+01
 8.0074667e+00   5.5436853e+01
 8.0129333e+00   5.6030912e+01
 8.0184000e+00   5.6220259e+01
 8.0238667e+00   5.5414761e+01
 8.0293333e+00   5.6331770e+01
 8.0348000e+00   5.5891444e+01
 8.0402667e+00   5.6105151e+01
 8.0457333e+00   5.6621961e+01
 8.0512000e+00   5.6899080e+01
 8.0566667e+00   5.9654735e+01
 8.0621333e+00   5.9911595e+01
 8.0676000e+00   7.4423860e+01
 8.0730667e+00   6.7362477e+01
 8.0785333e+00   8.3127878e+01
 8.0840000e+00   7.0767759e+01
 8.0894667e+00   9.0281699e+01
 8.0949333e+00   7.7444352e+01
 8.1004000e+00   1.1499681e+02
 8.1058667e+00   1.0624424e+02
 8.1113333e+00   1.4277446e+02
 8.1168000e+00   1.2988152e+02
 8.1222667e+00   1.2977623e+02
 8.1277333e+00   1.1982321e+02
 8.1332000e+00   1.2856094e+02
 8.1386667e+00   1.0725536e+02
 8.1441333e+00   1.1396922e+02
 8.1496000e+00   9.6638363e+01
 8.1550667e+00   1.0221654e+02
 8.1605333e+00   9.0908886e+01
 8.1660000e+00   8.5803902e+01
 8.1714667e+00   9.4596628e+01
 8.1769333e+00   8.3375714e+01
 8.1824000e+00   8.0230144e+01
 8.1878667e+00   7.1770417e+01
 8.1933333e+00   6.4423874e+01
 8.1988000e+00   5.8439430e+01
 8.2042667e+00   5.6388260e+01
 8.2097333e+00   5.5381629e+01
 8.2152000e+00   5.4864380e+01
 8.2206667e+00   5.4423716e+01
 8.2261333e+00   5.4403957e+01
 8.2316000e+00   5.3972862e+01
 8.2370667e+00   5.4138006e+01
 8.2425333e+00   5.3698908e+01
 8.2480000e+00   5.3413340e+01
 8.2534667e+00   5.3327523e+01
 8.2589333e+00   5.3533714e+01
 8.2644000e+00   5.2915590e+01
 8.2698667e+00   5.3292837e+01
 8.2753333e+00   5.2526352e+01
 8.2808000e+00   5.2925839e+01
 8.2862667e+00   5.2357550e+01
 8.2917333e+00   5.2422027e+01
 8.2972000e+00   5.2166134e+01
 8.3026667e+00   5.2204725e+01
 8.3081333e+00   5.1888631e+01
 8.3136000e+00   5.2030271e+01
 8.3190667e+00   5.1777449e+01
 8.3245333e+00   5.1692684e+01
 8.3300000e+00   5.1638135e+01
 8.3354667e+00   5.1369085e+01
 8.3409333e+00   5.1528825e+01
 8.3464000e+00   5.1401826e+01
 8.3518667e+00   5.1462731e+01
 8.3573333e+00   5.1282359e+01
 8.3628000e+00   5.1566404e+01
 8.3682667e+00   5.1189211e+01
 8.3737333e+00   5.1519407e+01
 8.3792000e+00   5.1039581e+01
 8.3846667e+00   5.1310182e+01
 8.3901333e+00   5.0921220e+01
 8.3956000e+00   5.1085543e+01
 8.4010667e+00   5.0859679e+01
 8.4065333e+00   5.0944216e+01
 8.4120000e+00   5.0746354e+01
 8.4174667e+00   5.0868471e+01
 8.4229333e+00   5.0566565e+01
 8.4284000e+00   5.0804070e+01
 8.4338667e+00   5.0514033e+01
 8.4393333e+00   5.0680851e+01
 8.4448000e+00   5.0563872e+01
 8.4502667e+00   5.0414579e+01
 8.4557333e+00   5.0603910e+01
 8.4612000e+00   5.0330839e+01
 8.4666667e+00   5.0556537e+01
 8.4721333e+00   5.0368781e+01
 8.4776000e+00   5.0861663e+01
 8.4830667e+00   5.0546134e+01
 8.4885333e+00   5.0803534e+01
 8.4940000e+00   5.0555665e+01
 8.4994667e+00   5.1002609e+01
 8.5049333e+00   5.0190406e+01
 8.5104000e+00   5.0610048e+01
 8.5158667e+00   5.0268162e+01
 8.5213333e+00   5.0465206e+01
 8.5268000e+00   5.0090369e+01
 8.5322667e+00   5.0186107e+01
 8.5377333e+00   5.0295289e+01
 8.5432000e+00   4.9978168e+01
 8.5486667e+00   4.9606057e+01
 8.5541333e+00   5.0045666e+01
 8.5596000e+00   4.9610319e+01
 8.5650667e+00   4.9652601e+01
 8.5705333e+00   4.9613213e+01
 8.5760000e+00   4.9590037e+01
 8.5814667e+00   4.9780585e+01
 8.5869333e+00   4.9492442e+01
 8.5924000e+00   4.9713596e+01
 8.5978667e+00   4.9525649e+01
 8.6033333e+00   4.9697050e+01
 8.6088000e+00   4.9414173e+01
 8.6142667e+00   4.9771862e+01
 8.6197333e+00   4.9275061e+01
 8.6252000e+00   4.9723988e+01
 8.6306667e+00   4.9179287e+01
 8.6361333e+00   4.9483066e+01
 8.6416000e+00   4.8898407e+01
 8.6470667e+00   4.9302871e+01
 8.6525333e+00   4.8915305e+01
 8.6580000e+00   4.9112353e+01
 8.6634667e+00   4.8767478e+01
 8.6689333e+00   4.8887377e+01
 8.6744000e+00   4.8642673e+01
 8.6798667e+00   4.8851018e+01
 8.6853333e+00   4.8787227e+01
 8.6908000e+00   4.8651948e+01
 8.6962667e+00   4.8775344e+01
 8.7017333e+00   4.8715020e+01
 8.7072000e+00   4.8768922e+01
 8.7126667e+00   4.8640188e+01
 8.7181333e+00   4.8679427e+01
 8.7236000e+00   4.8510460e+01
 8.7290667e+00   4.8670894e+01
 8.7345333e+00   4.8465697e+01
 8.7400000e+00   4.8514176e+01
 8.7454667e+00   4.8309452e+01
 8.7509333e+00   4.8500370e+01
 8.7564000e+00   4.8307788e+01
 8.7618667e+00   4.8442964e+01
 8.7673333e+00   4.8346841e+01
 8.7728000e+00   4.8387718e+01
 8.7782667e+00   4.8351377e+01
 8.7837333e+00   4.8475815e+01
 8.7892000e+00   4.8386812e+01
 8.7946667e+00   4.8415434e+01
 8.8001333e+00   4.8367978e+01
 8.8056000e+00   4.8135695e+01
 8.8110667e+00   4.8238729e+01
 8.8165333e+00   4.8131972e+01
 8.8220000e+00   4.8208866e+01
 8.8274667e+00   4.7876669e+01
 8.8329333e+00   4.8318927e+01
 8.8384000e+00   4.8103552e+01
 8.8438667e+00   4.8130832e+01
 8.8493333e+00   4.8096219e+01
 8.8548000e+00   4.8054893e+01
 8.8602667e+00   4.7770987e+01
 8.8657333e+00   4.8093258e+01
 8.8712000e+00   4.7655177e+01
 8.8766667e+00   4.7845703e+01
 8.8821333e+00   4.7914621e+01
 8.8876000e+00   4.7880938e+01
 8.8930667e+00   4.7708325e+01
 8.8985333e+00   4.7993123e+01
 8.9040000e+00   4.7903156e+01
 8.9094667e+00   4.7679950e+01
 8.9149333e+00   4.7851298e+01
 8.9204000e+00   4.7583013e+01
 8.9258667e+00   4.7644098e+01
 8.9313333e+00   4.7496619e+01
 8.9368000e+00   4.7584898e+01
 8.9422667e+00   4.7424324e+01
 8.9477333e+00   4.7787027e+01
 8.9532000e+00   4.7595498e+01
 8.9586667e+00   4.7716539e+01
 8.9641333e+00   4.7303515e+01
 8.9696000e+00   4.7675654e+01
 8.9750667e+00   4.7359972e+01
 8.9805333e+00   4.7716745e+01
 8.9860000e+00   4.7404646e+01
 8.9914667e+00   4.7828115e+01
 8.9969333e+00   4.7453073e+01
 9.0024000e+00   4.8267229e+01
 9.0078667e+00   4.8023010e+01
 9.0133333e+00   5.0410227e+01
 9.0188000e+00   4.9470460e+01
 9.0242667e+00   6.0200323e+01
 9.0297333e+00   5.4860542e+01
 9.0352000e+00   5.6803553e+01
 9.0406667e+00   5.6137836e+01
 9.0461333e+00   5.6830212e+01
 9.0516000e+00   5.2612846e+01
 9.0570667e+00   4.9324676e+01
 9.0625333e+00   5.0416313e+01
 9.0680000e+00   4.8273101e+01
 9.0734667e+00   4.8584719e+01
 9.0789333e+00   4.7613306e+01
 9.0844000e+00   4.8225625e+01
 9.0898667e+00   4.7044321e+01
 9.0953333e+00   4.7159636e+01
 9.1008000e+00   4.6359569e+01
 9.1062667e+00   4.6528798e+01
 9.1117333e+00   4.5846832e+01
 9.1172000e+00   4.6372331e+01
 9.1226667e+00   4.5548326e+01
 9.1281333e+00   4.5928781e+01
 9.1336000e+00   4.5462137e+01
 9.1390667e+00   4.5732697e+01
 9.1445333e+00   4.5333959e+01
 9.1500000e+00   4.5519537e+01
 9.1554667e+00   4.5134333e+01
 9.1609333e+00   4.5297934e+01
 9.1664000e+00   4.4921987e+01
 9.1718667e+00   4.5041054e+01
 9.1773333e+00   4.4697196e+01
 9.1828000e+00   4.4745255e+01
 9.1882667e+00   4.4691131e+01
 9.1937333e+00   4.4282090e+01
 9.1992000e+00   4.4627659e+01
 9.2046667e+00   4.4451415e+01
 9.2101333e+00   4.4535797e+01
 9.2156000e+00   4.4338299e+01
 9.2210667e+00   4.4459888e+01
 9.2265333e+00   4.4257709e+01
 9.2320000e+00   4.4411115e+01
 9.2374667e+00   4.4183241e+01
 9.2429333e+00   4.4224453e+01
 9.2484000e+00   4.3897146e+01
 9.2538667e+00   4.4301025e+01
 9.2593333e+00   4.3861587e+01
 9.2648000e+00   4.4351221e+01
 9.2702667e+00   4.3961105e+01
 9.2757333e+00   4.4352730e+01
 9.2812000e+00   4.3963575e+01
 9.2866667e+00   4.4041464e+01
 9.2921333e+00   4.3596855e+01
 9.2976000e+00   4.4132335e+01
 9.3030667e+00   4.3414156e+01
 9.3085333e+00   4.3733939e+01
 9.3140000e+00   4.3587439e+01
 9.3194667e+00   4.3562355e+01
 9.3249333e+00   4.3531769e+01
 9.3304000e+00   4.3652591e+01
 9.3358667e+00   4.3497904e+01
 9.3413333e+00   4.3431210e+01
 9.3468000e+00   4.3485544e+01
 9.3522667e+00   4.3336460e+01
 9.3577333e+00   4.3349829e+01
 9.3632000e+00   4.3540478e+01
 9.3686667e+00   4.3361345e+01
 9.3741333e+00   4.3465732e+01
 9.3796000e+00   4.3597085e+01
 9.3850667e+00   4.3488230e+01
 9.3905333e+00   4.3513777e+01
 9.3960000e+00   4.3659229e+01
 9.4014667e+00   4.3824876e+01
 9.4069333e+00   4.3331972e+01
 9.4124000e+00   4.3786140e+01
 9.4178667e+00   4.3598327e+01
 9.4233333e+00   4.4020222e+01
 9.4288000e+00   4.3626565e+01
 9.4342667e+00   4.4045731e+01
 9.4397333e+00   4.3894673e+01
 9.4452000e+00   4.4103492e+01
 9.4506667e+00   4.4360348e+01
 9.4561333e+00   4.4491557e+01
 9.4616000e+00   4.6018705e+01
 9.4670667e+00   4.5861726e+01
 9.4725333e+00   5.6579451e+01
 9.4780000e+00   5.2453526e+01
 9.4834667e+00   6.0026794e+01
 9.4889333e+00   7.3812826e+01
 9.4944000e+00   6.4930924e+01
 9.4998667e+00   9.6057216e+01
 9.5053333e+00   8.5705799e+01
 9.5108000e+00   9.6662996e+01
 9.5162667e+00   8.4856474e+01
 9.5217333e+00   7.9175728e+01
 9.5272000e+00   8.4556363e+01
 9.5326667e+00   7.7680888e+01
 9.5381333e+00   8.1102197e+01
 9.5436000e+00   7.9511008e+01
 9.5490667e+00   8.9697667e+01
 9.5545333e+00   1.0622038e+02
 9.5600000e+00   1.0971077e+02
 9.5654667e+00   1.0248170e+02
 9.5709333e+00   1.0225555e+02
 9.5764000e+00   9.3343281e+01
 9.5818667e+00   8.4175022e+01
 9.5873333e+00   6.3309732e+01
 9.5928000e+00   5.4866870e+01
 9.5982667e+00   4.9450701e+01
 9.6037333e+00   4.5503016e+01
 9.6092000e+00   4.4240530e+01
 9.6146667e+00   4.3533934e+01
 9.6201333e+00   4.3049330e+01
 9.6256000e+00   4.2656005e+01
 9.6310667e+00   4.2190482e+01
 9.6365333e+00   4.2155277e+01
 9.6420000e+00   4.1892143e+01
 9.6474667e+00   4.1736700e+01
 9.6529333e+00   4.1672886e+01
 9.6584000e+00   4.1528198e+01
 9.6638667e+00   4.1681121e+01
 9.6693333e+00   4.1087898e+01
 9.6748000e+00   4.1466671e+01
 9.6802667e+00   4.1300261e+01
 9.6857333e+00   4.1096919e+01
 9.6912000e+00   4.1005637e+01
 9.6966667e+00   4.1272518e+01
 9.7021333e+00   4.0567729e+01
 9.7076000e+00   4.1083140e+01
 9.7130667e+00   4.0928403e+01
 9.7185333e+00   4.0566437e+01
 9.7240000e+00   4.0633558e+01
 9.7294667e+00   4.0618469e+01
 9.7349333e+00   4.0546284e+01
 9.7404000e+00   4.0418570e+01
 9.7458667e+00   4.0916309e+01
 9.7513333e+00   4.0470031e+01
 9.7568000e+00   4.0187965e+01
 9.7622667e+00   4.0462286e+01
 9.7677333e+00   3.9926789e+01
 9.7732000e+00   4.0023059e+01
 9.7786667e+00   4.0121603e+01
 9.7841333e+00   3.9808583e+01
 9.7896000e+00   3.9812204e+01
 9.7950667e+00   3.9748804e+01
 9.8005333e+00   3.9939681e+01
 9.8060000e+00   3.9709347e+01
 9.8114667e+00   3.9874433e+01
 9.8169333e+00   3.9889862e+01
 9.8224000e+00   3.9959833e+01
 9.8278667e+00   3.9634040e+01
 9.8333333e+00   4.0176034e+01
 9.8388000e+00   3.9448819e+01
 9.8442667e+00   4.0168425e+01
 9.8497333e+00   3.9832333e+01
 9.8552000e+00   3.9787276e+01
 9.8606667e+00   3.9785522e+01
 9.8661333e+00   4.0141776e+01
 9.8716000e+00   3.9791217e+01
 9.8770667e+00   4.0260273e+01
 9.8825333e+00   4.0043598e+01
 9.8880000e+00   4.0726959e+01
 9.8934667e+00   4.0461921e+01
 9.8989333e+00   4.1161584e+01
 9.9044000e+00   4.1334252e+01
 9.9098667e+00   4.2489162e+01
 9.9153333e+00   4.3843801e+01
 9.9208000e+00   4.8770905e+01
 9.9262667e+00   4.9807596e+01
 9.9317333e+00   5.2867236e+01
 9.9372000e+00   6.0006699e+01
 9.9426667e+00   7.1357319e+01
 9.9481333e+00   5.8218279e+01
 9.9536000e+00   8.0562292e+01
 9.9590667e+00   6.4966298e+01
 9.9645333e+00   6.9685449e+01
 9.9700000e+00   7.0403473e+01
 9.9754667e+00   6.2290609e+01
 9.9809333e+00   6.8794480e+01
 9.9864000e+00   7.2976483e+01
 9.9918667e+00   6.3709844e+01
 9.9973333e+00   6.5905596e+01
 1.0002800e+01   5.2309192e+01
 1.0008267e+01   4.5333244e+01
 1.0013733e+01   4.5358315e+01
 1.0019200e+01   4.3661620e+01
 1.0024667e+01   4.1456903e+01
 1.0030133e+01   4.1440224e+01
 1.0035600e+01   4.1197325e+01
 1.0041067e+01   4.1125201e+01
 1.0046533e+01   4.0557631e+01
 1.0052000e+01   4.1756841e+01
 1.0057467e+01   4.2346664e+01
 1.0062933e+01   4.0598895e+01
 1.0068400e+01   4.5201780e+01
 1.0073867e+01   5.2690643e+01
 1.0079333e+01   4.1988511e+01
 1.0084800e+01   6.0368331e+01
 1.0090267e+01   6.9111767e+01
 1.0095733e+01   5.2081098e+01
 1.0101200e+01   7.4335647e+01
 1.0106667e+01   7.9609866e+01
 1.0112133e+01   7.0086172e+01
 1.0117600e+01   7.8495660e+01
 1.0123067e+01   7.7790117e+01
 1.0128533e+01   5.8859764e+01
 1.0134000e+01   5.8378220e+01
 1.0139467e+01   5.0026276e+01
 1.0144933e+01   4.3587151e+01
 1.0150400e+01   4.2329043e+01
 1.0155867e+01   4.1339553e+01
 1.0161333e+01   3.9729783e+01
 1.0166800e+01   3.9804189e+01
 1.0172267e+01   3.9551085e+01
 1.0177733e+01   3.8713393e+01
 1.0183200e+01   3.8718669e+01
 1.0188667e+01   3.8622909e+01
 1.0194133e+01   3.8319076e+01
 1.0199600e+01   3.7998300e+01
 1.0205067e+01   3.8306172e+01
 1.0210533e+01   3.7998601e+01
 1.0216000e+01   3.7763800e+01
 1.0221467e+01   3.8147142e+01
 1.0226933e+01   3.7652290e+01
 1.0232400e+01   3.7687410e+01
 1.0237867e+01   3.7444351e+01
 1.0243333e+01   3.7648183e+01
 1.0248800e+01   3.6989393e+01
 1.0254267e+01   3.7495076e+01
 1.0259733e+01   3.7015776e+01
 1.0265200e+01   3.7181557e+01
 1.0270667e+01   3.7073567e+01
 1.0276133e+01   3.7379206e+01
 1.0281600e+01   3.6739489e+01
 1.0287067e+01   3.7174785e+01
 1.0292533e+01   3.6666090e+01
 1.0298000e+01   3.6969259e+01
 1.0303467e+01   3.6700355e+01
 1.0308933e+01   3.6938033e+01
 1.0314400e+01   3.6681079e+01
 1.0319867e+01   3.6841169e+01
 1.0325333e+01   3.6551143e+01
 1.0330800e+01   3.6839850e+01
 1.0336267e+01   3.6611069e+01
 1.0341733e+01   3.6652661e+01
 1.0347200e+01   3.6506957e+01
 1.0352667e+01   3.6362976e+01
 1.0358133e+01   3.6343317e+01
 1.0363600e+01   3.6543919e+01
 1.0369067e+01   3.6251735e+01
 1.0374533e+01   3.6524788e+01
 1.0380000e+01   3.6187256e+01
 1.0385467e+01   3.6564002e+01
 1.0390933e+01   3.6266284e+01
 1.0396400e+01   3.6217381e+01
 1.0401867e+01   3.6406360e+01
 1.0407333e+01   3.5925514e+01
 1.0412800e+01   3.6137987e+01
 1.0418267e+01   3.6018489e+01
 1.0423733e+01   3.5971630e+01
 1.0429200e+01   3.5995805e+01
 1.0434667e+01   3.6266991e+01
 1.0440133e+01   3.6263242e+01
 1.0445600e+01   3.6294651e+01
 1.0451067e+01   3.6983522e+01
 1.0456533e+01   3.6167287e+01
 1.0462000e+01   3.6137363e+01
 1.0467467e+01   3.5974204e+01
 1.0472933e+01   3.6141000e+01
 1.0478400e+01   3.5979605e+01
 1.0483867e+01   3.5854172e+01
 1.0489333e+01   3.6058551e+01
 1.0494800e+01   3.5910697e+01
 1.0500267e+01   3.6066149e+01
 1.0505733e+01   3.5794769e+01
 1.0511200e+01   3.5952269e+01
 1.0516667e+01   3.6000904e+01
 1.0522133e+01   3.5774561e+01
 1.0527600e+01   3.5842952e+01
 1.0533067e+01   3.5825016e+01
 1.0538533e+01   3.5730284e+01
 1.0544000e+01   3.5625452e+01
 1.0549467e+01   3.5919844e+01
 1.0554933e+01   3.5557806e+01
 1.0560400e+01   3.5957926e+01
 1.0565867e+01   3.5531345e+01
 1.0571333e+01   3.5818269e+01
 1.0576800e+01   3.5516571e+01
 1.0582267e+01   3.5740692e+01
 1.0587733e+01   3.5704754e+01
 1.0593200e+01   3.5671857e+01
 1.0598667e+01   3.5695395e+01
 1.0604133e+01   3.5752509e+01
 1.0609600e+01   3.5717620e+01
 1.0615067e+01   3.5896668e+01
 1.0620533e+01   3.5644858e+01
 1.0626000e+01   3.5625703e+01
 1.0631467e+01   3.5589623e+01
 1.0636933e+01   3.5670440e+01
 1.0642400e+01   3.5665237e+01
 1.0647867e+01   3.5413026e+01
 1.0653333e+01   3.5605133e+01
 1.0658800e+01   3.5414402e+01
 1.0664267e+01   3.5456681e+01
 1.0669733e+01   3.5582539e+01
 1.0675200e+01   3.5505985e+01
 1.0680667e+01   3.5400058e+01
 1.0686133e+01   3.5542578e+01
 1.0691600e+01   3.5333455e+01
 1.0697067e+01   3.5490604e+01
 1.0702533e+01   3.5401860e+01
 1.0708000e+01   3.5526170e+01
 1.0713467e+01   3.5412690e+01
 1.0718933e+01   3.5604720e+01
 1.0724400e+01   3.5475385e+01
 1.0729867e+01   3.5612952e+01
 1.0735333e+01   3.5382828e+01
 1.0740800e+01   3.5501739e+01
 1.0746267e+01   3.5396580e+01
 1.0751733e+01   3.5491099e+01
 1.0757200e+01   3.5489503e+01
 1.0762667e+01   3.5502576e+01
 1.0768133e+01   3.5188211e+01
 1.0773600e+01   3.5524721e+01
 1.0779067e+01   3.5244687e+01
 1.0784533e+01   3.5518693e+01
 1.0790000e+01   3.5368402e+01
 1.0795467e+01   3.5318686e+01
 1.0800933e+01   3.5358953e+01
 1.0806400e+01   3.5266476e+01
 1.0811867e+01   3.5264902e+01
 1.0817333e+01   3.5138879e+01
 1.0822800e+01   3.5334939e+01
 1.0828267e+01   3.5506745e+01
 1.0833733e+01   3.5389798e+01
 1.0839200e+01   3.5274179e+01
 1.0844667e+01   3.5370853e+01
 1.0850133e+01   3.5410760e+01
 1.0855600e+01   3.5382314e+01
 1.0861067e+01   3.5392120e+01
 1.0866533e+01   3.5533961e+01
 1.0872000e+01   3.5369351e+01
 1.0877467e+01   3.5585780e+01
 1.0882933e+01   3.5562035e+01
 1.0888400e+01   3.5505546e+01
 1.0893867e+01   3.5750368e+01
 1.0899333e+01   3.5461640e+01
 1.0904800e+01   3.5533224e+01
 1.0910267e+01   3.5551958e+01
 1.0915733e+01   3.5541862e+01
 1.0921200e+01   3.5470682e+01
 1.0926667e+01   3.5626358e+01
 1.0932133e+01   3.5311599e+01
 1.0937600e+01   3.5696733e+01
 1.0943067e+01   3.5540433e+01
 1.0948533e+01   3.5688352e+01
 1.0954000e+01   3.5614715e+01
 1.0959467e+01   3.5549605e+01
 1.0964933e+01   3.5618237e+01
 1.0970400e+01   3.5685565e+01
 1.0975867e+01   3.5449102e+01
 1.0981333e+01   3.5641467e+01
 1.0986800e+01   3.5647248e+01
 1.0992267e+01   3.5752501e+01
 1.0997733e+01   3.5554334e+01
 1.1003200e+01   3.5960217e+01
 1.1008667e+01   3.5602142e+01
 1.1014133e+01   3.5938648e+01
 1.1019600e+01   3.5624622e+01
 1.1025067e+01   3.5889269e+01
 1.1030533e+01   3.5763924e+01
 1.1036000e+01   3.5815804e+01
 1.1041467e+01   3.5701727e+01
 1.1046933e+01   3.6062512e+01
 1.1052400e+01   3.5761994e+01
 1.1057867e+01   3.6305367e+01
 1.1063333e+01   3.6164544e+01
 1.1068800e+01   3.6292461e+01
 1.1074267e+01   3.6357239e+01
 1.1079733e+01   3.6291350e+01
 1.1085200e+01   3.6400714e+01
 1.1090667e+01   3.6456199e+01
 1.1096133e+01   3.6264327e+01
 1.1101600e+01   3.6285420e+01
 1.1107067e+01   3.6240622e+01
 1.1112533e+01   3.5972475e+01
 1.1118000e+01   3.6148099e+01
 1.1123467e+01   3.5991893e+01
 1.1128933e+01   3.6058888e+01
 1.1134400e+01   3.5748750e+01
 1.1139867e+01   3.6029182e+01
 1.1145333e+01   3.5735559e+01
 1.1150800e+01   3.5982914e+01
 1.1156267e+01   3.5708215e+01
 1.1161733e+01   3.5870650e+01
 1.1167200e+01   3.5744678e+01
 1.1172667e+01   3.5792649e+01
 1.1178133e+01   3.5671797e+01
 1.1183600e+01   3.5753901e+01
 1.1189067e+01   3.5775373e+01
 1.1194533e+01   3.5744939e+01
