PWDR ff_004560_sum_norm_dc_0.tif Azm= 352.fxye Bank 1
2-Theta Angle (Degrees)
Intensity
       1500
 3.0000000e+00   4.6393543e+01
 3.0054667e+00   4.6092548e+01
 3.0109333e+00   4.5948499e+01
 3.0164000e+00   4.5810392e+01
 3.0218667e+00   4.5664838e+01
 3.0273333e+00   4.5498501e+01
 3.0328000e+00   4.5469938e+01
 3.0382667e+00   4.5257951e+01
 3.0437333e+00   4.4906604e+01
 3.0492000e+00   4.4858476e+01
 3.0546667e+00   4.4400072e+01
 3.0601333e+00   4.4413866e+01
 3.0656000e+00   4.5427322e+01
 3.0710667e+00   4.3703274e+01
 3.0765333e+00   4.3938111e+01
 3.0820000e+00   4.3386928e+01
 3.0874667e+00   4.3009293e+01
 3.0929333e+00   4.3123062e+01
 3.0984000e+00   4.2955331e+01
 3.1038667e+00   4.2778488e+01
 3.1093333e+00   4.2396032e+01
 3.1148000e+00   4.2280913e+01
 3.1202667e+00   4.2010445e+01
 3.1257333e+00   4.2153651e+01
 3.1312000e+00   4.1747286e+01
 3.1366667e+00   4.1977875e+01
 3.1421333e+00   4.1630156e+01
 3.1476000e+00   4.1428001e+01
 3.1530667e+00   4.1931531e+01
 3.1585333e+00   4.1127042e+01
 3.1640000e+00   4.1050247e+01
 3.1694667e+00   4.0846238e+01
 3.1749333e+00   4.1085995e+01
 3.1804000e+00   4.0647471e+01
 3.1858667e+00   4.0428573e+01
 3.1913333e+00   4.0248244e+01
 3.1968000e+00   4.0322708e+01
 3.2022667e+00   4.0225283e+01
 3.2077333e+00   4.0077738e+01
 3.2132000e+00   4.0025752e+01
 3.2186667e+00   3.9879867e+01
 3.2241333e+00   3.9863209e+01
 3.2296000e+00   3.9705204e+01
 3.2350667e+00   3.9487186e+01
 3.2405333e+00   3.9403961e+01
 3.2460000e+00   3.9105686e+01
 3.2514667e+00   3.8958342e+01
 3.2569333e+00   3.9144630e+01
 3.2624000e+00   3.8976998e+01
 3.2678667e+00   3.8858123e+01
 3.2733333e+00   3.8912838e+01
 3.2788000e+00   3.8492444e+01
 3.2842667e+00   3.8659486e+01
 3.2897333e+00   3.8416037e+01
 3.2952000e+00   3.8369409e+01
 3.3006667e+00   3.8289489e+01
 3.3061333e+00   3.8275119e+01
 3.3116000e+00   3.7980151e+01
 3.3170667e+00   3.8109333e+01
 3.3225333e+00   3.7760903e+01
 3.3280000e+00   3.7925906e+01
 3.3334667e+00   3.7573096e+01
 3.3389333e+00   3.7839221e+01
 3.3444000e+00   3.7586419e+01
 3.3498667e+00   3.7729709e+01
 3.3553333e+00   3.7536091e+01
 3.3608000e+00   3.7482994e+01
 3.3662667e+00   3.7432205e+01
 3.3717333e+00   3.7302117e+01
 3.3772000e+00   3.7188979e+01
 3.3826667e+00   3.7346953e+01
 3.3881333e+00   3.7218119e+01
 3.3936000e+00   3.7240600e+01
 3.3990667e+00   3.7178516e+01
 3.4045333e+00   3.7028509e+01
 3.4100000e+00   3.7133026e+01
 3.4154667e+00   3.6909089e+01
 3.4209333e+00   3.7098739e+01
 3.4264000e+00   3.6906294e+01
 3.4318667e+00   3.7068643e+01
 3.4373333e+00   3.6909650e+01
 3.4428000e+00   3.6681666e+01
 3.4482667e+00   3.6769777e+01
 3.4537333e+00   3.6702819e+01
 3.4592000e+00   3.6646692e+01
 3.4646667e+00   3.6466892e+01
 3.4701333e+00   3.6807162e+01
 3.4756000e+00   3.6545302e+01
 3.4810667e+00   3.6556557e+01
 3.4865333e+00   3.6449584e+01
 3.4920000e+00   3.6706247e+01
 3.4974667e+00   3.6545126e+01
 3.5029333e+00   3.6610283e+01
 3.5084000e+00   3.6546091e+01
 3.5138667e+00   3.6435661e+01
 3.5193333e+00   3.6398314e+01
 3.5248000e+00   3.6631760e+01
 3.5302667e+00   3.6523998e+01
 3.5357333e+00   3.6456837e+01
 3.5412000e+00   3.6335128e+01
 3.5466667e+00   3.6596476e+01
 3.5521333e+00   3.6485255e+01
 3.5576000e+00   3.6655135e+01
 3.5630667e+00   3.6683915e+01
 3.5685333e+00   3.6716356e+01
 3.5740000e+00   3.6812520e+01
 3.5794667e+00   3.6583338e+01
 3.5849333e+00   3.6347578e+01
 3.5904000e+00   3.6264866e+01
 3.5958667e+00   3.6302168e+01
 3.6013333e+00   3.6132775e+01
 3.6068000e+00   3.6158023e+01
 3.6122667e+00   3.6066948e+01
 3.6177333e+00   3.6195603e+01
 3.6232000e+00   3.6214040e+01
 3.6286667e+00   3.6173227e+01
 3.6341333e+00   3.6156926e+01
 3.6396000e+00   3.6225096e+01
 3.6450667e+00   3.6186563e+01
 3.6505333e+00   3.6123026e+01
 3.6560000e+00   3.6141199e+01
 3.6614667e+00   3.6265984e+01
 3.6669333e+00   3.6334635e+01
 3.6724000e+00   3.6396445e+01
 3.6778667e+00   3.6229249e+01
 3.6833333e+00   3.6461679e+01
 3.6888000e+00   3.6401610e+01
 3.6942667e+00   3.6475656e+01
 3.6997333e+00   3.6351117e+01
 3.7052000e+00   3.6344337e+01
 3.7106667e+00   3.6608804e+01
 3.7161333e+00   3.6459174e+01
 3.7216000e+00   3.6646930e+01
 3.7270667e+00   3.6505778e+01
 3.7325333e+00   3.6522685e+01
 3.7380000e+00   3.6489447e+01
 3.7434667e+00   3.6545658e+01
 3.7489333e+00   3.6491740e+01
 3.7544000e+00   3.6557848e+01
 3.7598667e+00   3.6680491e+01
 3.7653333e+00   3.6741156e+01
 3.7708000e+00   3.6665955e+01
 3.7762667e+00   3.6984539e+01
 3.7817333e+00   3.6692854e+01
 3.7872000e+00   3.6960687e+01
 3.7926667e+00   3.6896938e+01
 3.7981333e+00   3.7267426e+01
 3.8036000e+00   3.7029164e+01
 3.8090667e+00   3.7253276e+01
 3.8145333e+00   3.7058065e+01
 3.8200000e+00   3.7183525e+01
 3.8254667e+00   3.7165151e+01
 3.8309333e+00   3.7208446e+01
 3.8364000e+00   3.7246383e+01
 3.8418667e+00   3.7456931e+01
 3.8473333e+00   3.7529628e+01
 3.8528000e+00   3.7512292e+01
 3.8582667e+00   3.7783625e+01
 3.8637333e+00   3.7622115e+01
 3.8692000e+00   3.7904609e+01
 3.8746667e+00   3.7872695e+01
 3.8801333e+00   3.8297411e+01
 3.8856000e+00   3.8061429e+01
 3.8910667e+00   3.8420662e+01
 3.8965333e+00   3.8365379e+01
 3.9020000e+00   3.8769780e+01
 3.9074667e+00   3.8750822e+01
 3.9129333e+00   3.9048015e+01
 3.9184000e+00   3.9147883e+01
 3.9238667e+00   3.9418824e+01
 3.9293333e+00   3.9353832e+01
 3.9348000e+00   3.9422059e+01
 3.9402667e+00   3.9425905e+01
 3.9457333e+00   3.9369638e+01
 3.9512000e+00   3.9450541e+01
 3.9566667e+00   3.9464439e+01
 3.9621333e+00   3.9712981e+01
 3.9676000e+00   3.9495461e+01
 3.9730667e+00   3.9677123e+01
 3.9785333e+00   3.9834732e+01
 3.9840000e+00   3.9779433e+01
 3.9894667e+00   3.9993847e+01
 3.9949333e+00   4.0007242e+01
 4.0004000e+00   4.0318323e+01
 4.0058667e+00   4.0156709e+01
 4.0113333e+00   4.0541973e+01
 4.0168000e+00   4.0535936e+01
 4.0222667e+00   4.0859570e+01
 4.0277333e+00   4.0938689e+01
 4.0332000e+00   4.1509589e+01
 4.0386667e+00   4.1427143e+01
 4.0441333e+00   4.2170728e+01
 4.0496000e+00   4.2772954e+01
 4.0550667e+00   4.3583875e+01
 4.0605333e+00   4.5180224e+01
 4.0660000e+00   4.9532618e+01
 4.0714667e+00   5.4002250e+01
 4.0769333e+00   6.4318086e+01
 4.0824000e+00   7.9651158e+01
 4.0878667e+00   9.8185550e+01
 4.0933333e+00   1.2995201e+02
 4.0988000e+00   1.8741533e+02
 4.1042667e+00   2.0315319e+02
 4.1097333e+00   2.4383383e+02
 4.1152000e+00   2.3651642e+02
 4.1206667e+00   2.5876475e+02
 4.1261333e+00   2.3964141e+02
 4.1316000e+00   2.3313414e+02
 4.1370667e+00   2.3039531e+02
 4.1425333e+00   2.1877372e+02
 4.1480000e+00   1.5428937e+02
 4.1534667e+00   1.3795674e+02
 4.1589333e+00   9.4365760e+01
 4.1644000e+00   6.7333933e+01
 4.1698667e+00   5.7739697e+01
 4.1753333e+00   5.0896238e+01
 4.1808000e+00   4.8138685e+01
 4.1862667e+00   4.6968436e+01
 4.1917333e+00   4.6270371e+01
 4.1972000e+00   4.5887298e+01
 4.2026667e+00   4.5617104e+01
 4.2081333e+00   4.5548386e+01
 4.2136000e+00   4.5384759e+01
 4.2190667e+00   4.5434378e+01
 4.2245333e+00   4.5201970e+01
 4.2300000e+00   4.5340615e+01
 4.2354667e+00   4.5168379e+01
 4.2409333e+00   4.5168218e+01
 4.2464000e+00   4.5233791e+01
 4.2518667e+00   4.5311577e+01
 4.2573333e+00   4.5372433e+01
 4.2628000e+00   4.5484578e+01
 4.2682667e+00   4.5592312e+01
 4.2737333e+00   4.5404798e+01
 4.2792000e+00   4.5648874e+01
 4.2846667e+00   4.5611604e+01
 4.2901333e+00   4.5988347e+01
 4.2956000e+00   4.5708982e+01
 4.3010667e+00   4.6470125e+01
 4.3065333e+00   4.5880470e+01
 4.3120000e+00   4.8749292e+01
 4.3174667e+00   4.5909313e+01
 4.3229333e+00   4.8270093e+01
 4.3284000e+00   4.6270768e+01
 4.3338667e+00   4.7123083e+01
 4.3393333e+00   4.6690333e+01
 4.3448000e+00   4.6966420e+01
 4.3502667e+00   4.7145158e+01
 4.3557333e+00   4.7448188e+01
 4.3612000e+00   4.7862439e+01
 4.3666667e+00   4.7860565e+01
 4.3721333e+00   4.8686773e+01
 4.3776000e+00   4.8382756e+01
 4.3830667e+00   4.9406058e+01
 4.3885333e+00   4.9354030e+01
 4.3940000e+00   5.0879612e+01
 4.3994667e+00   5.1366696e+01
 4.4049333e+00   5.3830370e+01
 4.4104000e+00   5.7239940e+01
 4.4158667e+00   6.4724657e+01
 4.4213333e+00   7.8730222e+01
 4.4268000e+00   9.9210332e+01
 4.4322667e+00   1.3669113e+02
 4.4377333e+00   1.7219079e+02
 4.4432000e+00   2.0416046e+02
 4.4486667e+00   2.2654984e+02
 4.4541333e+00   2.4441366e+02
 4.4596000e+00   2.7889261e+02
 4.4650667e+00   2.9152334e+02
 4.4705333e+00   3.3848613e+02
 4.4760000e+00   3.6349897e+02
 4.4814667e+00   3.2366810e+02
 4.4869333e+00   3.0390054e+02
 4.4924000e+00   1.6424485e+02
 4.4978667e+00   1.3878928e+02
 4.5033333e+00   8.5387672e+01
 4.5088000e+00   9.2712237e+01
 4.5142667e+00   1.0342061e+02
 4.5197333e+00   1.2544031e+02
 4.5252000e+00   1.5187095e+02
 4.5306667e+00   1.7958211e+02
 4.5361333e+00   1.9321362e+02
 4.5416000e+00   2.0480993e+02
 4.5470667e+00   2.1412354e+02
 4.5525333e+00   2.5853220e+02
 4.5580000e+00   2.4426641e+02
 4.5634667e+00   2.6418146e+02
 4.5689333e+00   2.9126017e+02
 4.5744000e+00   2.1258255e+02
 4.5798667e+00   2.0841587e+02
 4.5853333e+00   1.1819147e+02
 4.5908000e+00   1.0965623e+02
 4.5962667e+00   7.6911180e+01
 4.6017333e+00   7.6303764e+01
 4.6072000e+00   6.8886036e+01
 4.6126667e+00   6.9109523e+01
 4.6181333e+00   7.0771555e+01
 4.6236000e+00   7.5871589e+01
 4.6290667e+00   8.6784812e+01
 4.6345333e+00   1.1157289e+02
 4.6400000e+00   1.6333127e+02
 4.6454667e+00   2.5998880e+02
 4.6509333e+00   3.7557163e+02
 4.6564000e+00   5.0563137e+02
 4.6618667e+00   6.5273442e+02
 4.6673333e+00   7.3873084e+02
 4.6728000e+00   7.9003841e+02
 4.6782667e+00   8.2893707e+02
 4.6837333e+00   8.5022524e+02
 4.6892000e+00   8.4752448e+02
 4.6946667e+00   8.8931330e+02
 4.7001333e+00   7.2808272e+02
 4.7056000e+00   6.9001368e+02
 4.7110667e+00   4.2585778e+02
 4.7165333e+00   3.5659685e+02
 4.7220000e+00   2.0463149e+02
 4.7274667e+00   1.8163756e+02
 4.7329333e+00   1.1309581e+02
 4.7384000e+00   9.1079434e+01
 4.7438667e+00   7.6098437e+01
 4.7493333e+00   6.8588473e+01
 4.7548000e+00   6.7651994e+01
 4.7602667e+00   6.2496962e+01
 4.7657333e+00   6.4683969e+01
 4.7712000e+00   6.0762962e+01
 4.7766667e+00   6.2573552e+01
 4.7821333e+00   6.0444698e+01
 4.7876000e+00   6.1240278e+01
 4.7930667e+00   6.0652235e+01
 4.7985333e+00   6.0064395e+01
 4.8040000e+00   6.2022731e+01
 4.8094667e+00   5.8033502e+01
 4.8149333e+00   6.3674651e+01
 4.8204000e+00   5.8790117e+01
 4.8258667e+00   6.3519394e+01
 4.8313333e+00   5.9388558e+01
 4.8368000e+00   6.4424520e+01
 4.8422667e+00   6.0070635e+01
 4.8477333e+00   6.4722645e+01
 4.8532000e+00   6.2018723e+01
 4.8586667e+00   6.4864885e+01
 4.8641333e+00   6.4472378e+01
 4.8696000e+00   6.5362131e+01
 4.8750667e+00   6.7216918e+01
 4.8805333e+00   6.5246373e+01
 4.8860000e+00   7.1275493e+01
 4.8914667e+00   6.4511441e+01
 4.8969333e+00   7.4771660e+01
 4.9024000e+00   6.6931233e+01
 4.9078667e+00   7.7933045e+01
 4.9133333e+00   7.1088605e+01
 4.9188000e+00   8.3447736e+01
 4.9242667e+00   7.8715899e+01
 4.9297333e+00   9.1559780e+01
 4.9352000e+00   1.0598677e+02
 4.9406667e+00   1.1348342e+02
 4.9461333e+00   1.4834501e+02
 4.9516000e+00   1.5464655e+02
 4.9570667e+00   2.3595367e+02
 4.9625333e+00   2.4117871e+02
 4.9680000e+00   2.7220438e+02
 4.9734667e+00   3.7835605e+02
 4.9789333e+00   3.6125666e+02
 4.9844000e+00   4.6708313e+02
 4.9898667e+00   5.1008931e+02
 4.9953333e+00   5.3196500e+02
 5.0008000e+00   5.8067504e+02
 5.0062667e+00   5.7604368e+02
 5.0117333e+00   5.5783624e+02
 5.0172000e+00   4.7892293e+02
 5.0226667e+00   4.0395023e+02
 5.0281333e+00   3.9322495e+02
 5.0336000e+00   2.5446992e+02
 5.0390667e+00   2.8293494e+02
 5.0445333e+00   1.6884135e+02
 5.0500000e+00   1.8784169e+02
 5.0554667e+00   1.0362753e+02
 5.0609333e+00   1.1777401e+02
 5.0664000e+00   7.9149574e+01
 5.0718667e+00   9.6286073e+01
 5.0773333e+00   7.0745137e+01
 5.0828000e+00   8.4405630e+01
 5.0882667e+00   6.8634149e+01
 5.0937333e+00   7.6210713e+01
 5.0992000e+00   6.7435682e+01
 5.1046667e+00   7.0529679e+01
 5.1101333e+00   6.5761819e+01
 5.1156000e+00   6.6146907e+01
 5.1210667e+00   6.4124324e+01
 5.1265333e+00   6.3002111e+01
 5.1320000e+00   6.2592389e+01
 5.1374667e+00   6.0651831e+01
 5.1429333e+00   6.1161058e+01
 5.1484000e+00   5.7692172e+01
 5.1538667e+00   5.9999750e+01
 5.1593333e+00   5.4661719e+01
 5.1648000e+00   6.0104269e+01
 5.1702667e+00   5.3020723e+01
 5.1757333e+00   5.8812044e+01
 5.1812000e+00   5.2311196e+01
 5.1866667e+00   5.6495337e+01
 5.1921333e+00   5.2056603e+01
 5.1976000e+00   5.4748494e+01
 5.2030667e+00   5.1132903e+01
 5.2085333e+00   5.3447808e+01
 5.2140000e+00   5.0408162e+01
 5.2194667e+00   5.1987293e+01
 5.2249333e+00   5.0318004e+01
 5.2304000e+00   5.0340495e+01
 5.2358667e+00   5.0147581e+01
 5.2413333e+00   4.9256315e+01
 5.2468000e+00   4.9856997e+01
 5.2522667e+00   4.7244125e+01
 5.2577333e+00   5.0476493e+01
 5.2632000e+00   4.6800513e+01
 5.2686667e+00   4.9252762e+01
 5.2741333e+00   4.6645431e+01
 5.2796000e+00   4.8368333e+01
 5.2850667e+00   4.6318705e+01
 5.2905333e+00   4.7675485e+01
 5.2960000e+00   4.5953771e+01
 5.3014667e+00   4.7045188e+01
 5.3069333e+00   4.6013254e+01
 5.3124000e+00   4.6371634e+01
 5.3178667e+00   4.5651422e+01
 5.3233333e+00   4.6051568e+01
 5.3288000e+00   4.5308614e+01
 5.3342667e+00   4.5036049e+01
 5.3397333e+00   4.5370547e+01
 5.3452000e+00   4.3893089e+01
 5.3506667e+00   4.5573756e+01
 5.3561333e+00   4.3793321e+01
 5.3616000e+00   4.5051643e+01
 5.3670667e+00   4.3575996e+01
 5.3725333e+00   4.4706244e+01
 5.3780000e+00   4.3352945e+01
 5.3834667e+00   4.4153365e+01
 5.3889333e+00   4.3273208e+01
 5.3944000e+00   4.3710698e+01
 5.3998667e+00   4.3070691e+01
 5.4053333e+00   4.3319924e+01
 5.4108000e+00   4.2784354e+01
 5.4162667e+00   4.2774139e+01
 5.4217333e+00   4.2832234e+01
 5.4272000e+00   4.2379519e+01
 5.4326667e+00   4.2908271e+01
 5.4381333e+00   4.1889151e+01
 5.4436000e+00   4.2853165e+01
 5.4490667e+00   4.1837543e+01
 5.4545333e+00   4.2529608e+01
 5.4600000e+00   4.1670154e+01
 5.4654667e+00   4.2171403e+01
 5.4709333e+00   4.1473017e+01
 5.4764000e+00   4.1929645e+01
 5.4818667e+00   4.1424918e+01
 5.4873333e+00   4.1717734e+01
 5.4928000e+00   4.1363304e+01
 5.4982667e+00   4.1512911e+01
 5.5037333e+00   4.1492062e+01
 5.5092000e+00   4.1221712e+01
 5.5146667e+00   4.1702329e+01
 5.5201333e+00   4.0990226e+01
 5.5256000e+00   4.1724139e+01
 5.5310667e+00   4.0875112e+01
 5.5365333e+00   4.2148015e+01
 5.5420000e+00   4.1092355e+01
 5.5474667e+00   4.6221812e+01
 5.5529333e+00   4.1185761e+01
 5.5584000e+00   4.2954549e+01
 5.5638667e+00   4.0947541e+01
 5.5693333e+00   4.1234019e+01
 5.5748000e+00   4.0867123e+01
 5.5802667e+00   4.0792809e+01
 5.5857333e+00   4.0697873e+01
 5.5912000e+00   4.0700290e+01
 5.5966667e+00   4.0860472e+01
 5.6021333e+00   4.0633992e+01
 5.6076000e+00   4.0943198e+01
 5.6130667e+00   4.0457568e+01
 5.6185333e+00   4.0966627e+01
 5.6240000e+00   4.0642369e+01
 5.6294667e+00   4.0845675e+01
 5.6349333e+00   4.0591066e+01
 5.6404000e+00   4.0883404e+01
 5.6458667e+00   4.0440462e+01
 5.6513333e+00   4.0847542e+01
 5.6568000e+00   4.0586636e+01
 5.6622667e+00   4.0875155e+01
 5.6677333e+00   4.0880030e+01
 5.6732000e+00   4.0994070e+01
 5.6786667e+00   4.1576655e+01
 5.6841333e+00   4.2584014e+01
 5.6896000e+00   4.2945089e+01
 5.6950667e+00   4.8098769e+01
 5.7005333e+00   4.5586868e+01
 5.7060000e+00   4.8485465e+01
 5.7114667e+00   5.2066858e+01
 5.7169333e+00   6.3032914e+01
 5.7224000e+00   6.6493683e+01
 5.7278667e+00   8.0709267e+01
 5.7333333e+00   1.1470692e+02
 5.7388000e+00   1.1076921e+02
 5.7442667e+00   1.1995253e+02
 5.7497333e+00   1.4998142e+02
 5.7552000e+00   1.3840398e+02
 5.7606667e+00   1.4403110e+02
 5.7661333e+00   1.7293561e+02
 5.7716000e+00   1.5604701e+02
 5.7770667e+00   1.8427705e+02
 5.7825333e+00   1.3559572e+02
 5.7880000e+00   1.2151672e+02
 5.7934667e+00   1.1501619e+02
 5.7989333e+00   8.7200747e+01
 5.8044000e+00   9.2463671e+01
 5.8098667e+00   7.7981072e+01
 5.8153333e+00   7.0267637e+01
 5.8208000e+00   5.2501267e+01
 5.8262667e+00   4.9541437e+01
 5.8317333e+00   4.4463248e+01
 5.8372000e+00   4.2368795e+01
 5.8426667e+00   4.1268260e+01
 5.8481333e+00   4.0676168e+01
 5.8536000e+00   4.0366393e+01
 5.8590667e+00   3.9883269e+01
 5.8645333e+00   4.0101837e+01
 5.8700000e+00   3.9351404e+01
 5.8754667e+00   3.9607663e+01
 5.8809333e+00   3.9129820e+01
 5.8864000e+00   3.9375944e+01
 5.8918667e+00   3.8807144e+01
 5.8973333e+00   3.9051514e+01
 5.9028000e+00   3.8634384e+01
 5.9082667e+00   3.8714537e+01
 5.9137333e+00   3.8549211e+01
 5.9192000e+00   3.8581787e+01
 5.9246667e+00   3.8386668e+01
 5.9301333e+00   3.8602084e+01
 5.9356000e+00   3.8307262e+01
 5.9410667e+00   3.8471883e+01
 5.9465333e+00   3.8347878e+01
 5.9520000e+00   3.8381096e+01
 5.9574667e+00   3.8317294e+01
 5.9629333e+00   3.8304094e+01
 5.9684000e+00   3.8388228e+01
 5.9738667e+00   3.8214516e+01
 5.9793333e+00   3.8451934e+01
 5.9848000e+00   3.8336795e+01
 5.9902667e+00   3.8627003e+01
 5.9957333e+00   3.8596509e+01
 6.0012000e+00   3.8776030e+01
 6.0066667e+00   3.9118405e+01
 6.0121333e+00   3.9627231e+01
 6.0176000e+00   4.0648674e+01
 6.0230667e+00   4.2072660e+01
 6.0285333e+00   4.5067253e+01
 6.0340000e+00   5.2535824e+01
 6.0394667e+00   6.1075191e+01
 6.0449333e+00   7.2812174e+01
 6.0504000e+00   9.5933650e+01
 6.0558667e+00   1.1675733e+02
 6.0613333e+00   1.3806804e+02
 6.0668000e+00   1.5128085e+02
 6.0722667e+00   1.6207635e+02
 6.0777333e+00   1.5852374e+02
 6.0832000e+00   1.5613498e+02
 6.0886667e+00   1.3470194e+02
 6.0941333e+00   1.1648591e+02
 6.0996000e+00   8.4629670e+01
 6.1050667e+00   7.5649731e+01
 6.1105333e+00   5.9848321e+01
 6.1160000e+00   5.5948348e+01
 6.1214667e+00   4.7814951e+01
 6.1269333e+00   4.4269085e+01
 6.1324000e+00   4.0826480e+01
 6.1378667e+00   3.9467344e+01
 6.1433333e+00   3.8840315e+01
 6.1488000e+00   3.8313465e+01
 6.1542667e+00   3.8133274e+01
 6.1597333e+00   3.7950462e+01
 6.1652000e+00   3.7699309e+01
 6.1706667e+00   3.7509186e+01
 6.1761333e+00   3.7499053e+01
 6.1816000e+00   3.7284716e+01
 6.1870667e+00   3.7356908e+01
 6.1925333e+00   3.7209676e+01
 6.1980000e+00   3.7246587e+01
 6.2034667e+00   3.7042841e+01
 6.2089333e+00   3.7180733e+01
 6.2144000e+00   3.6878676e+01
 6.2198667e+00   3.6905325e+01
 6.2253333e+00   3.6955269e+01
 6.2308000e+00   3.6669331e+01
 6.2362667e+00   3.6999132e+01
 6.2417333e+00   3.6760320e+01
 6.2472000e+00   3.6851126e+01
 6.2526667e+00   3.6725464e+01
 6.2581333e+00   3.7115369e+01
 6.2636000e+00   3.6801702e+01
 6.2690667e+00   3.7717699e+01
 6.2745333e+00   3.6990954e+01
 6.2800000e+00   3.7246019e+01
 6.2854667e+00   3.7100974e+01
 6.2909333e+00   3.6677020e+01
 6.2964000e+00   3.6517697e+01
 6.3018667e+00   3.6473293e+01
 6.3073333e+00   3.6335589e+01
 6.3128000e+00   3.6353866e+01
 6.3182667e+00   3.6395829e+01
 6.3237333e+00   3.6444104e+01
 6.3292000e+00   3.6541029e+01
 6.3346667e+00   3.6477501e+01
 6.3401333e+00   3.6707261e+01
 6.3456000e+00   3.6241621e+01
 6.3510667e+00   3.6303480e+01
 6.3565333e+00   3.6380057e+01
 6.3620000e+00   3.6419390e+01
 6.3674667e+00   3.6468159e+01
 6.3729333e+00   3.6661210e+01
 6.3784000e+00   3.6924289e+01
 6.3838667e+00   3.7321222e+01
 6.3893333e+00   3.8218796e+01
 6.3948000e+00   3.9237744e+01
 6.4002667e+00   4.0694597e+01
 6.4057333e+00   4.2457476e+01
 6.4112000e+00   4.5217138e+01
 6.4166667e+00   5.0021748e+01
 6.4221333e+00   5.5288435e+01
 6.4276000e+00   6.2777641e+01
 6.4330667e+00   6.8378827e+01
 6.4385333e+00   6.8990373e+01
 6.4440000e+00   6.5864504e+01
 6.4494667e+00   6.1587464e+01
 6.4549333e+00   5.4004728e+01
 6.4604000e+00   4.8806622e+01
 6.4658667e+00   4.5138951e+01
 6.4713333e+00   4.1462209e+01
 6.4768000e+00   3.9960575e+01
 6.4822667e+00   3.8318320e+01
 6.4877333e+00   3.7871839e+01
 6.4932000e+00   3.7156780e+01
 6.4986667e+00   3.7100202e+01
 6.5041333e+00   3.6469611e+01
 6.5096000e+00   3.6640267e+01
 6.5150667e+00   3.6324158e+01
 6.5205333e+00   3.6297139e+01
 6.5260000e+00   3.6113406e+01
 6.5314667e+00   3.6320283e+01
 6.5369333e+00   3.6150813e+01
 6.5424000e+00   3.6278509e+01
 6.5478667e+00   3.6110052e+01
 6.5533333e+00   3.6236889e+01
 6.5588000e+00   3.6112365e+01
 6.5642667e+00   3.6022553e+01
 6.5697333e+00   3.6207243e+01
 6.5752000e+00   3.5914522e+01
 6.5806667e+00   3.6234552e+01
 6.5861333e+00   3.5917159e+01
 6.5916000e+00   3.6114236e+01
 6.5970667e+00   3.5993749e+01
 6.6025333e+00   3.6015291e+01
 6.6080000e+00   3.6096868e+01
 6.6134667e+00   3.6037953e+01
 6.6189333e+00   3.6118892e+01
 6.6244000e+00   3.6051946e+01
 6.6298667e+00   3.6144514e+01
 6.6353333e+00   3.6050633e+01
 6.6408000e+00   3.6176871e+01
 6.6462667e+00   3.6059226e+01
 6.6517333e+00   3.6247917e+01
 6.6572000e+00   3.6083604e+01
 6.6626667e+00   3.6187051e+01
 6.6681333e+00   3.5970026e+01
 6.6736000e+00   3.6229922e+01
 6.6790667e+00   3.6036826e+01
 6.6845333e+00   3.6510367e+01
 6.6900000e+00   3.6111015e+01
 6.6954667e+00   3.6327823e+01
 6.7009333e+00   3.6197580e+01
 6.7064000e+00   3.6382454e+01
 6.7118667e+00   3.6373846e+01
 6.7173333e+00   3.6391770e+01
 6.7228000e+00   3.6528827e+01
 6.7282667e+00   3.6418019e+01
 6.7337333e+00   3.6558970e+01
 6.7392000e+00   3.6373557e+01
 6.7446667e+00   3.6544504e+01
 6.7501333e+00   3.6538984e+01
 6.7556000e+00   3.6545573e+01
 6.7610667e+00   3.6642109e+01
 6.7665333e+00   3.6569288e+01
 6.7720000e+00   3.6690069e+01
 6.7774667e+00   3.6804081e+01
 6.7829333e+00   3.6678207e+01
 6.7884000e+00   3.6887236e+01
 6.7938667e+00   3.6714227e+01
 6.7993333e+00   3.6956090e+01
 6.8048000e+00   3.6873391e+01
 6.8102667e+00   3.7007797e+01
 6.8157333e+00   3.6938834e+01
 6.8212000e+00   3.7043266e+01
 6.8266667e+00   3.7086960e+01
 6.8321333e+00   3.7095731e+01
 6.8376000e+00   3.7160352e+01
 6.8430667e+00   3.7194204e+01
 6.8485333e+00   3.7299173e+01
 6.8540000e+00   3.7398073e+01
 6.8594667e+00   3.7210300e+01
 6.8649333e+00   3.7468910e+01
 6.8704000e+00   3.7342309e+01
 6.8758667e+00   3.7490128e+01
 6.8813333e+00   3.7491924e+01
 6.8868000e+00   3.7577855e+01
 6.8922667e+00   3.7732363e+01
 6.8977333e+00   3.7613695e+01
 6.9032000e+00   3.7841639e+01
 6.9086667e+00   3.7786782e+01
 6.9141333e+00   3.7844649e+01
 6.9196000e+00   3.8014638e+01
 6.9250667e+00   3.7682936e+01
 6.9305333e+00   3.8125178e+01
 6.9360000e+00   3.7943768e+01
 6.9414667e+00   3.8253040e+01
 6.9469333e+00   3.8097687e+01
 6.9524000e+00   3.8508672e+01
 6.9578667e+00   3.8149813e+01
 6.9633333e+00   3.8613608e+01
 6.9688000e+00   3.8386475e+01
 6.9742667e+00   3.8774777e+01
 6.9797333e+00   3.8792619e+01
 6.9852000e+00   3.8999104e+01
 6.9906667e+00   3.8976946e+01
 6.9961333e+00   3.9177697e+01
 7.0016000e+00   3.9107026e+01
 7.0070667e+00   3.9516225e+01
 7.0125333e+00   3.9294847e+01
 7.0180000e+00   3.9683510e+01
 7.0234667e+00   4.0010874e+01
 7.0289333e+00   3.9770078e+01
 7.0344000e+00   4.1107386e+01
 7.0398667e+00   4.0160726e+01
 7.0453333e+00   4.0740150e+01
 7.0508000e+00   4.0308473e+01
 7.0562667e+00   4.0924209e+01
 7.0617333e+00   4.0666517e+01
 7.0672000e+00   4.1268020e+01
 7.0726667e+00   4.1716958e+01
 7.0781333e+00   4.2859504e+01
 7.0836000e+00   4.3408660e+01
 7.0890667e+00   4.7129163e+01
 7.0945333e+00   5.0689690e+01
 7.1000000e+00   5.3834521e+01
 7.1054667e+00   6.6941334e+01
 7.1109333e+00   7.5364795e+01
 7.1164000e+00   9.2688665e+01
 7.1218667e+00   1.1070445e+02
 7.1273333e+00   1.3261697e+02
 7.1328000e+00   1.6541407e+02
 7.1382667e+00   1.9888124e+02
 7.1437333e+00   1.7823354e+02
 7.1492000e+00   2.0049635e+02
 7.1546667e+00   1.6408768e+02
 7.1601333e+00   1.1966291e+02
 7.1656000e+00   1.0088275e+02
 7.1710667e+00   8.3502856e+01
 7.1765333e+00   6.7686974e+01
 7.1820000e+00   6.0170017e+01
 7.1874667e+00   5.2707898e+01
 7.1929333e+00   4.7564476e+01
 7.1984000e+00   4.4932418e+01
 7.2038667e+00   4.3466983e+01
 7.2093333e+00   4.2589874e+01
 7.2148000e+00   4.2304172e+01
 7.2202667e+00   4.1779972e+01
 7.2257333e+00   4.1683451e+01
 7.2312000e+00   4.1429785e+01
 7.2366667e+00   4.1435109e+01
 7.2421333e+00   4.1105222e+01
 7.2476000e+00   4.1104102e+01
 7.2530667e+00   4.1171593e+01
 7.2585333e+00   4.0783214e+01
 7.2640000e+00   4.1125148e+01
 7.2694667e+00   4.0703354e+01
 7.2749333e+00   4.0956599e+01
 7.2804000e+00   4.0815502e+01
 7.2858667e+00   4.0855413e+01
 7.2913333e+00   4.0747170e+01
 7.2968000e+00   4.0820953e+01
 7.3022667e+00   4.0766146e+01
 7.3077333e+00   4.0756655e+01
 7.3132000e+00   4.0689185e+01
 7.3186667e+00   4.0675355e+01
 7.3241333e+00   4.0680032e+01
 7.3296000e+00   4.0696844e+01
 7.3350667e+00   4.0642609e+01
 7.3405333e+00   4.0594848e+01
 7.3460000e+00   4.0738369e+01
 7.3514667e+00   4.0582365e+01
 7.3569333e+00   4.0711557e+01
 7.3624000e+00   4.0440941e+01
 7.3678667e+00   4.0710914e+01
 7.3733333e+00   4.0606276e+01
 7.3788000e+00   4.0680240e+01
 7.3842667e+00   4.0630352e+01
 7.3897333e+00   4.0643080e+01
 7.3952000e+00   4.0585954e+01
 7.4006667e+00   4.0657200e+01
 7.4061333e+00   4.0614578e+01
 7.4116000e+00   4.0636095e+01
 7.4170667e+00   4.0635000e+01
 7.4225333e+00   4.0699959e+01
 7.4280000e+00   4.0680003e+01
 7.4334667e+00   4.0697119e+01
 7.4389333e+00   4.0729147e+01
 7.4444000e+00   4.0722652e+01
 7.4498667e+00   4.0826287e+01
 7.4553333e+00   4.0711019e+01
 7.4608000e+00   4.0919753e+01
 7.4662667e+00   4.0784726e+01
 7.4717333e+00   4.0966155e+01
 7.4772000e+00   4.0867939e+01
 7.4826667e+00   4.1074949e+01
 7.4881333e+00   4.1007762e+01
 7.4936000e+00   4.1065249e+01
 7.4990667e+00   4.1107532e+01
 7.5045333e+00   4.1110494e+01
 7.5100000e+00   4.1220243e+01
 7.5154667e+00   4.1200522e+01
 7.5209333e+00   4.1346494e+01
 7.5264000e+00   4.1051287e+01
 7.5318667e+00   4.1362321e+01
 7.5373333e+00   4.1194153e+01
 7.5428000e+00   4.1377465e+01
 7.5482667e+00   4.1253154e+01
 7.5537333e+00   4.1523309e+01
 7.5592000e+00   4.1417462e+01
 7.5646667e+00   4.1599485e+01
 7.5701333e+00   4.1334788e+01
 7.5756000e+00   4.1532652e+01
 7.5810667e+00   4.1605458e+01
 7.5865333e+00   4.1607773e+01
 7.5920000e+00   4.1720542e+01
 7.5974667e+00   4.1713569e+01
 7.6029333e+00   4.1733842e+01
 7.6084000e+00   4.1802522e+01
 7.6138667e+00   4.1950478e+01
 7.6193333e+00   4.1773152e+01
 7.6248000e+00   4.2204390e+01
 7.6302667e+00   4.1725215e+01
 7.6357333e+00   4.2252689e+01
 7.6412000e+00   4.1901427e+01
 7.6466667e+00   4.2501965e+01
 7.6521333e+00   4.2144409e+01
 7.6576000e+00   4.2504896e+01
 7.6630667e+00   4.2338250e+01
 7.6685333e+00   4.2646389e+01
 7.6740000e+00   4.2476129e+01
 7.6794667e+00   4.2807071e+01
 7.6849333e+00   4.2762957e+01
 7.6904000e+00   4.2938978e+01
 7.6958667e+00   4.2946605e+01
 7.7013333e+00   4.3063688e+01
 7.7068000e+00   4.3073269e+01
 7.7122667e+00   4.3214013e+01
 7.7177333e+00   4.3350625e+01
 7.7232000e+00   4.3415192e+01
 7.7286667e+00   4.3635052e+01
 7.7341333e+00   4.3550053e+01
 7.7396000e+00   4.3848713e+01
 7.7450667e+00   4.3852458e+01
 7.7505333e+00   4.4080376e+01
 7.7560000e+00   4.4165482e+01
 7.7614667e+00   4.4427503e+01
 7.7669333e+00   4.4776807e+01
 7.7724000e+00   4.4970737e+01
 7.7778667e+00   4.4999585e+01
 7.7833333e+00   4.5538206e+01
 7.7888000e+00   4.5738279e+01
 7.7942667e+00   4.6020277e+01
 7.7997333e+00   4.7063711e+01
 7.8052000e+00   5.0285099e+01
 7.8106667e+00   4.8028200e+01
 7.8161333e+00   5.2698248e+01
 7.8216000e+00   5.4096485e+01
 7.8270667e+00   5.9381932e+01
 7.8325333e+00   6.9774853e+01
 7.8380000e+00   8.5075476e+01
 7.8434667e+00   1.0314304e+02
 7.8489333e+00   1.2400549e+02
 7.8544000e+00   1.4097566e+02
 7.8598667e+00   1.6001104e+02
 7.8653333e+00   1.7542762e+02
 7.8708000e+00   1.8683219e+02
 7.8762667e+00   1.8461413e+02
 7.8817333e+00   1.7883425e+02
 7.8872000e+00   1.5481929e+02
 7.8926667e+00   1.2655845e+02
 7.8981333e+00   1.1228825e+02
 7.9036000e+00   9.6782746e+01
 7.9090667e+00   8.4375331e+01
 7.9145333e+00   7.4960043e+01
 7.9200000e+00   6.4049016e+01
 7.9254667e+00   5.8218702e+01
 7.9309333e+00   5.4766021e+01
 7.9364000e+00   5.2791383e+01
 7.9418667e+00   5.0313303e+01
 7.9473333e+00   4.9407765e+01
 7.9528000e+00   4.8424371e+01
 7.9582667e+00   4.8003275e+01
 7.9637333e+00   4.7585343e+01
 7.9692000e+00   4.7569623e+01
 7.9746667e+00   4.7081965e+01
 7.9801333e+00   4.7409314e+01
 7.9856000e+00   4.6961155e+01
 7.9910667e+00   4.7231004e+01
 7.9965333e+00   4.7149009e+01
 8.0020000e+00   4.7029682e+01
 8.0074667e+00   4.7141647e+01
 8.0129333e+00   4.7134173e+01
 8.0184000e+00   4.7369244e+01
 8.0238667e+00   4.7172439e+01
 8.0293333e+00   4.7648705e+01
 8.0348000e+00   4.7402657e+01
 8.0402667e+00   4.7853522e+01
 8.0457333e+00   4.7668114e+01
 8.0512000e+00   4.8201974e+01
 8.0566667e+00   4.7984313e+01
 8.0621333e+00   4.8577776e+01
 8.0676000e+00   4.8423896e+01
 8.0730667e+00   4.8849448e+01
 8.0785333e+00   4.9099357e+01
 8.0840000e+00   4.9603009e+01
 8.0894667e+00   5.0640628e+01
 8.0949333e+00   5.1215623e+01
 8.1004000e+00   5.5338665e+01
 8.1058667e+00   5.7740280e+01
 8.1113333e+00   7.0434955e+01
 8.1168000e+00   7.2559924e+01
 8.1222667e+00   8.8710983e+01
 8.1277333e+00   9.0855496e+01
 8.1332000e+00   1.2076183e+02
 8.1386667e+00   1.2863144e+02
 8.1441333e+00   1.6328669e+02
 8.1496000e+00   1.3996925e+02
 8.1550667e+00   1.5520048e+02
 8.1605333e+00   1.2552925e+02
 8.1660000e+00   1.4513259e+02
 8.1714667e+00   1.2144399e+02
 8.1769333e+00   1.5595041e+02
 8.1824000e+00   1.2305863e+02
 8.1878667e+00   1.8415087e+02
 8.1933333e+00   1.4472186e+02
 8.1988000e+00   1.3573372e+02
 8.2042667e+00   1.3953005e+02
 8.2097333e+00   1.0115518e+02
 8.2152000e+00   1.2484808e+02
 8.2206667e+00   7.3635213e+01
 8.2261333e+00   8.8484231e+01
 8.2316000e+00   6.3744529e+01
 8.2370667e+00   6.6490511e+01
 8.2425333e+00   6.2889539e+01
 8.2480000e+00   6.3422806e+01
 8.2534667e+00   6.1913336e+01
 8.2589333e+00   6.1548527e+01
 8.2644000e+00   5.9021421e+01
 8.2698667e+00   5.7023355e+01
 8.2753333e+00   5.4213407e+01
 8.2808000e+00   5.2968112e+01
 8.2862667e+00   5.1356107e+01
 8.2917333e+00   5.1012210e+01
 8.2972000e+00   5.0315587e+01
 8.3026667e+00   5.0213553e+01
 8.3081333e+00   4.9562358e+01
 8.3136000e+00   4.9829436e+01
 8.3190667e+00   4.9456665e+01
 8.3245333e+00   4.9703978e+01
 8.3300000e+00   4.9589885e+01
 8.3354667e+00   4.9721006e+01
 8.3409333e+00   4.9733011e+01
 8.3464000e+00   4.9933230e+01
 8.3518667e+00   5.0274832e+01
 8.3573333e+00   5.0501762e+01
 8.3628000e+00   5.1702347e+01
 8.3682667e+00   5.2544102e+01
 8.3737333e+00   5.5966506e+01
 8.3792000e+00   5.9992839e+01
 8.3846667e+00   6.8501648e+01
 8.3901333e+00   8.0323325e+01
 8.3956000e+00   1.0408427e+02
 8.4010667e+00   1.1449658e+02
 8.4065333e+00   1.3637511e+02
 8.4120000e+00   1.4027914e+02
 8.4174667e+00   1.4814444e+02
 8.4229333e+00   1.5105392e+02
 8.4284000e+00   1.4929420e+02
 8.4338667e+00   1.4378769e+02
 8.4393333e+00   1.3373930e+02
 8.4448000e+00   1.1902900e+02
 8.4502667e+00   1.0187085e+02
 8.4557333e+00   8.6661514e+01
 8.4612000e+00   7.2506739e+01
 8.4666667e+00   6.5943638e+01
 8.4721333e+00   5.7672517e+01
 8.4776000e+00   5.5221470e+01
 8.4830667e+00   5.2815821e+01
 8.4885333e+00   5.2882943e+01
 8.4940000e+00   5.2729375e+01
 8.4994667e+00   5.5563383e+01
 8.5049333e+00   5.8486083e+01
 8.5104000e+00   6.5310987e+01
 8.5158667e+00   7.2354762e+01
 8.5213333e+00   8.7564187e+01
 8.5268000e+00   9.1273958e+01
 8.5322667e+00   1.0371692e+02
 8.5377333e+00   1.0739874e+02
 8.5432000e+00   1.1407490e+02
 8.5486667e+00   1.1350395e+02
 8.5541333e+00   1.1027401e+02
 8.5596000e+00   1.0004934e+02
 8.5650667e+00   8.8925770e+01
 8.5705333e+00   7.7362066e+01
 8.5760000e+00   6.7375587e+01
 8.5814667e+00   6.0892054e+01
 8.5869333e+00   5.5861456e+01
 8.5924000e+00   5.3056877e+01
 8.5978667e+00   5.0765435e+01
 8.6033333e+00   4.9388122e+01
 8.6088000e+00   4.8179805e+01
 8.6142667e+00   4.7966236e+01
 8.6197333e+00   4.7369366e+01
 8.6252000e+00   4.7471101e+01
 8.6306667e+00   4.6897698e+01
 8.6361333e+00   4.6862786e+01
 8.6416000e+00   4.6656833e+01
 8.6470667e+00   4.6501788e+01
 8.6525333e+00   4.6308531e+01
 8.6580000e+00   4.6141837e+01
 8.6634667e+00   4.6073381e+01
 8.6689333e+00   4.5954754e+01
 8.6744000e+00   4.5772334e+01
 8.6798667e+00   4.5497633e+01
 8.6853333e+00   4.5636672e+01
 8.6908000e+00   4.5394982e+01
 8.6962667e+00   4.5485487e+01
 8.7017333e+00   4.5089392e+01
 8.7072000e+00   4.5344848e+01
 8.7126667e+00   4.5022668e+01
 8.7181333e+00   4.5222239e+01
 8.7236000e+00   4.4673166e+01
 8.7290667e+00   4.5006228e+01
 8.7345333e+00   4.4527455e+01
 8.7400000e+00   4.4724407e+01
 8.7454667e+00   4.4575599e+01
 8.7509333e+00   4.4700367e+01
 8.7564000e+00   4.4372632e+01
 8.7618667e+00   4.4502982e+01
 8.7673333e+00   4.4125884e+01
 8.7728000e+00   4.4247441e+01
 8.7782667e+00   4.4057804e+01
 8.7837333e+00   4.4033872e+01
 8.7892000e+00   4.4030670e+01
 8.7946667e+00   4.3891091e+01
 8.8001333e+00   4.4001183e+01
 8.8056000e+00   4.3770450e+01
 8.8110667e+00   4.3795309e+01
 8.8165333e+00   4.3662141e+01
 8.8220000e+00   4.3808697e+01
 8.8274667e+00   4.3507560e+01
 8.8329333e+00   4.3743462e+01
 8.8384000e+00   4.3228670e+01
 8.8438667e+00   4.3618015e+01
 8.8493333e+00   4.3205061e+01
 8.8548000e+00   4.3542139e+01
 8.8602667e+00   4.2966279e+01
 8.8657333e+00   4.3415222e+01
 8.8712000e+00   4.2985634e+01
 8.8766667e+00   4.3466584e+01
 8.8821333e+00   4.3216810e+01
 8.8876000e+00   4.3961074e+01
 8.8930667e+00   4.4370709e+01
 8.8985333e+00   4.5646534e+01
 8.9040000e+00   4.6980575e+01
 8.9094667e+00   4.9265141e+01
 8.9149333e+00   5.1851117e+01
 8.9204000e+00   5.3871138e+01
 8.9258667e+00   5.4845533e+01
 8.9313333e+00   5.2595101e+01
 8.9368000e+00   5.3231025e+01
 8.9422667e+00   5.1800965e+01
 8.9477333e+00   5.2717711e+01
 8.9532000e+00   5.3542343e+01
 8.9586667e+00   5.1608278e+01
 8.9641333e+00   4.8164464e+01
 8.9696000e+00   4.5298345e+01
 8.9750667e+00   4.4028160e+01
 8.9805333e+00   4.3204116e+01
 8.9860000e+00   4.2619188e+01
 8.9914667e+00   4.2280532e+01
 8.9969333e+00   4.1849198e+01
 9.0024000e+00   4.1764183e+01
 9.0078667e+00   4.1540849e+01
 9.0133333e+00   4.1606816e+01
 9.0188000e+00   4.1404655e+01
 9.0242667e+00   4.1609818e+01
 9.0297333e+00   4.1098911e+01
 9.0352000e+00   4.1263490e+01
 9.0406667e+00   4.1107747e+01
 9.0461333e+00   4.1270591e+01
 9.0516000e+00   4.1123439e+01
 9.0570667e+00   4.1209343e+01
 9.0625333e+00   4.1138015e+01
 9.0680000e+00   4.1183068e+01
 9.0734667e+00   4.1654215e+01
 9.0789333e+00   4.1830552e+01
 9.0844000e+00   4.2601800e+01
 9.0898667e+00   4.3326314e+01
 9.0953333e+00   4.4404070e+01
 9.1008000e+00   4.5110143e+01
 9.1062667e+00   4.5832381e+01
 9.1117333e+00   4.5286306e+01
 9.1172000e+00   4.5319327e+01
 9.1226667e+00   4.5009345e+01
 9.1281333e+00   4.5081911e+01
 9.1336000e+00   4.4568368e+01
 9.1390667e+00   4.4181031e+01
 9.1445333e+00   4.2928771e+01
 9.1500000e+00   4.1782974e+01
 9.1554667e+00   4.1300183e+01
 9.1609333e+00   4.0685033e+01
 9.1664000e+00   4.0493592e+01
 9.1718667e+00   4.0221075e+01
 9.1773333e+00   4.0087469e+01
 9.1828000e+00   3.9835503e+01
 9.1882667e+00   3.9857535e+01
 9.1937333e+00   3.9580043e+01
 9.1992000e+00   3.9719830e+01
 9.2046667e+00   3.9337464e+01
 9.2101333e+00   3.9652703e+01
 9.2156000e+00   3.9316029e+01
 9.2210667e+00   3.9474516e+01
 9.2265333e+00   3.9295224e+01
 9.2320000e+00   3.9483685e+01
 9.2374667e+00   3.9105453e+01
 9.2429333e+00   3.9509515e+01
 9.2484000e+00   3.8923804e+01
 9.2538667e+00   3.9492231e+01
 9.2593333e+00   3.8898660e+01
 9.2648000e+00   3.9292444e+01
 9.2702667e+00   3.8987516e+01
 9.2757333e+00   3.9399516e+01
 9.2812000e+00   3.8932921e+01
 9.2866667e+00   3.9463224e+01
 9.2921333e+00   3.9191378e+01
 9.2976000e+00   3.9277190e+01
 9.3030667e+00   3.9835912e+01
 9.3085333e+00   3.9431984e+01
 9.3140000e+00   3.9085636e+01
 9.3194667e+00   3.9376459e+01
 9.3249333e+00   3.9462127e+01
 9.3304000e+00   3.9687873e+01
 9.3358667e+00   4.0396885e+01
 9.3413333e+00   4.1336921e+01
 9.3468000e+00   4.2953006e+01
 9.3522667e+00   4.5199238e+01
 9.3577333e+00   4.6906317e+01
 9.3632000e+00   4.9651111e+01
 9.3686667e+00   5.0832628e+01
 9.3741333e+00   5.1066613e+01
 9.3796000e+00   5.0794177e+01
 9.3850667e+00   5.0209500e+01
 9.3905333e+00   4.9404496e+01
 9.3960000e+00   4.9516527e+01
 9.4014667e+00   4.8080101e+01
 9.4069333e+00   4.6875769e+01
 9.4124000e+00   4.4067117e+01
 9.4178667e+00   4.2924037e+01
 9.4233333e+00   4.1124608e+01
 9.4288000e+00   4.0530455e+01
 9.4342667e+00   3.9430037e+01
 9.4397333e+00   3.9620679e+01
 9.4452000e+00   3.8841446e+01
 9.4506667e+00   3.9317639e+01
 9.4561333e+00   3.8667777e+01
 9.4616000e+00   3.9177209e+01
 9.4670667e+00   3.8864570e+01
 9.4725333e+00   3.9147981e+01
 9.4780000e+00   3.9017841e+01
 9.4834667e+00   3.9277794e+01
 9.4889333e+00   3.9207624e+01
 9.4944000e+00   3.9462509e+01
 9.4998667e+00   3.9439077e+01
 9.5053333e+00   3.9880574e+01
 9.5108000e+00   4.0254268e+01
 9.5162667e+00   4.0900600e+01
 9.5217333e+00   4.2683083e+01
 9.5272000e+00   4.6103347e+01
 9.5326667e+00   4.6145351e+01
 9.5381333e+00   5.1683411e+01
 9.5436000e+00   6.2754483e+01
 9.5490667e+00   7.5310752e+01
 9.5545333e+00   8.4956422e+01
 9.5600000e+00   8.4295035e+01
 9.5654667e+00   1.0124810e+02
 9.5709333e+00   9.9023429e+01
 9.5764000e+00   9.6451475e+01
 9.5818667e+00   1.0490855e+02
 9.5873333e+00   8.9751311e+01
 9.5928000e+00   9.5601753e+01
 9.5982667e+00   8.7784062e+01
 9.6037333e+00   8.2420836e+01
 9.6092000e+00   7.4831699e+01
 9.6146667e+00   8.5802375e+01
 9.6201333e+00   8.0274565e+01
 9.6256000e+00   7.7785149e+01
 9.6310667e+00   6.8541030e+01
 9.6365333e+00   5.9249001e+01
 9.6420000e+00   4.8430454e+01
 9.6474667e+00   4.3560858e+01
 9.6529333e+00   4.0642253e+01
 9.6584000e+00   3.9753710e+01
 9.6638667e+00   3.9059208e+01
 9.6693333e+00   3.8593099e+01
 9.6748000e+00   3.8377840e+01
 9.6802667e+00   3.8215656e+01
 9.6857333e+00   3.8106348e+01
 9.6912000e+00   3.8096260e+01
 9.6966667e+00   3.7971708e+01
 9.7021333e+00   3.7833798e+01
 9.7076000e+00   3.7890601e+01
 9.7130667e+00   3.7671884e+01
 9.7185333e+00   3.7492418e+01
 9.7240000e+00   3.7535948e+01
 9.7294667e+00   3.7287219e+01
 9.7349333e+00   3.7266914e+01
 9.7404000e+00   3.7222937e+01
 9.7458667e+00   3.7136120e+01
 9.7513333e+00   3.7069949e+01
 9.7568000e+00   3.6917472e+01
 9.7622667e+00   3.6956037e+01
 9.7677333e+00   3.6925234e+01
 9.7732000e+00   3.6894361e+01
 9.7786667e+00   3.6772840e+01
 9.7841333e+00   3.7045351e+01
 9.7896000e+00   3.6871766e+01
 9.7950667e+00   3.7174339e+01
 9.8005333e+00   3.7424032e+01
 9.8060000e+00   3.8212412e+01
 9.8114667e+00   3.9083545e+01
 9.8169333e+00   4.0677636e+01
 9.8224000e+00   4.2521747e+01
 9.8278667e+00   4.4260040e+01
 9.8333333e+00   4.6504874e+01
 9.8388000e+00   4.8344173e+01
 9.8442667e+00   4.9149059e+01
 9.8497333e+00   4.9206510e+01
 9.8552000e+00   4.7894167e+01
 9.8606667e+00   4.6831645e+01
 9.8661333e+00   4.4432293e+01
 9.8716000e+00   4.2912485e+01
 9.8770667e+00   4.1281054e+01
 9.8825333e+00   3.9812282e+01
 9.8880000e+00   3.8865857e+01
 9.8934667e+00   3.8273236e+01
 9.8989333e+00   3.7852489e+01
 9.9044000e+00   3.7553743e+01
 9.9098667e+00   3.7792659e+01
 9.9153333e+00   3.7837189e+01
 9.9208000e+00   3.7975209e+01
 9.9262667e+00   3.8053765e+01
 9.9317333e+00   3.8105149e+01
 9.9372000e+00   3.8800408e+01
 9.9426667e+00   3.9064230e+01
 9.9481333e+00   4.0302375e+01
 9.9536000e+00   4.6685713e+01
 9.9590667e+00   4.6988930e+01
 9.9645333e+00   4.9242585e+01
 9.9700000e+00   5.8211579e+01
 9.9754667e+00   5.6564723e+01
 9.9809333e+00   7.6378765e+01
 9.9864000e+00   8.1050108e+01
 9.9918667e+00   8.8345689e+01
 9.9973333e+00   1.0033304e+02
 1.0002800e+01   1.0064586e+02
 1.0008267e+01   1.1907667e+02
 1.0013733e+01   9.0864246e+01
 1.0019200e+01   1.2017077e+02
 1.0024667e+01   9.9958163e+01
 1.0030133e+01   9.3539536e+01
 1.0035600e+01   8.0518214e+01
 1.0041067e+01   8.3797453e+01
 1.0046533e+01   6.8685072e+01
 1.0052000e+01   6.8442606e+01
 1.0057467e+01   6.1843076e+01
 1.0062933e+01   5.2245835e+01
 1.0068400e+01   6.2406385e+01
 1.0073867e+01   4.4641738e+01
 1.0079333e+01   5.5572561e+01
 1.0084800e+01   4.1028258e+01
 1.0090267e+01   4.3083907e+01
 1.0095733e+01   3.8562800e+01
 1.0101200e+01   3.9739687e+01
 1.0106667e+01   3.7645214e+01
 1.0112133e+01   3.8122647e+01
 1.0117600e+01   3.7013341e+01
 1.0123067e+01   3.7568598e+01
 1.0128533e+01   3.7212386e+01
 1.0134000e+01   3.7632364e+01
 1.0139467e+01   3.7625926e+01
 1.0144933e+01   3.7321248e+01
 1.0150400e+01   3.7312039e+01
 1.0155867e+01   3.7350463e+01
 1.0161333e+01   3.7707105e+01
 1.0166800e+01   3.8379604e+01
 1.0172267e+01   3.9054746e+01
 1.0177733e+01   4.0104389e+01
 1.0183200e+01   4.0693054e+01
 1.0188667e+01   4.1596682e+01
 1.0194133e+01   4.1846836e+01
 1.0199600e+01   4.1921216e+01
 1.0205067e+01   4.1709104e+01
 1.0210533e+01   4.1543595e+01
 1.0216000e+01   4.0351057e+01
 1.0221467e+01   3.9950307e+01
 1.0226933e+01   3.8350542e+01
 1.0232400e+01   3.7721514e+01
 1.0237867e+01   3.6678996e+01
 1.0243333e+01   3.6164881e+01
 1.0248800e+01   3.5274288e+01
 1.0254267e+01   3.5042340e+01
 1.0259733e+01   3.4627764e+01
 1.0265200e+01   3.4452333e+01
 1.0270667e+01   3.4167139e+01
 1.0276133e+01   3.4372109e+01
 1.0281600e+01   3.4021658e+01
 1.0287067e+01   3.4091120e+01
 1.0292533e+01   3.3868030e+01
 1.0298000e+01   3.3852534e+01
 1.0303467e+01   3.3702409e+01
 1.0308933e+01   3.3878817e+01
 1.0314400e+01   3.3692351e+01
 1.0319867e+01   3.3738314e+01
 1.0325333e+01   3.3720951e+01
 1.0330800e+01   3.3662205e+01
 1.0336267e+01   3.3448002e+01
 1.0341733e+01   3.3672842e+01
 1.0347200e+01   3.3565281e+01
 1.0352667e+01   3.3498067e+01
 1.0358133e+01   3.3632728e+01
 1.0363600e+01   3.3376533e+01
 1.0369067e+01   3.3459747e+01
 1.0374533e+01   3.3355805e+01
 1.0380000e+01   3.3447814e+01
 1.0385467e+01   3.3285698e+01
 1.0390933e+01   3.3425903e+01
 1.0396400e+01   3.3240801e+01
 1.0401867e+01   3.3371555e+01
 1.0407333e+01   3.3423299e+01
 1.0412800e+01   3.3293188e+01
 1.0418267e+01   3.3376135e+01
 1.0423733e+01   3.3705696e+01
 1.0429200e+01   3.3280890e+01
 1.0434667e+01   3.3576458e+01
 1.0440133e+01   3.3309528e+01
 1.0445600e+01   3.3245905e+01
 1.0451067e+01   3.3265614e+01
 1.0456533e+01   3.3200104e+01
 1.0462000e+01   3.3206113e+01
 1.0467467e+01   3.3166118e+01
 1.0472933e+01   3.3149672e+01
 1.0478400e+01   3.3123901e+01
 1.0483867e+01   3.3195563e+01
 1.0489333e+01   3.3070301e+01
 1.0494800e+01   3.3211929e+01
 1.0500267e+01   3.3129784e+01
 1.0505733e+01   3.3360442e+01
 1.0511200e+01   3.3138236e+01
 1.0516667e+01   3.3294743e+01
 1.0522133e+01   3.3265846e+01
 1.0527600e+01   3.3231642e+01
 1.0533067e+01   3.3269764e+01
 1.0538533e+01   3.3372531e+01
 1.0544000e+01   3.3347194e+01
 1.0549467e+01   3.3457537e+01
 1.0554933e+01   3.3365139e+01
 1.0560400e+01   3.3486108e+01
 1.0565867e+01   3.3519861e+01
 1.0571333e+01   3.3738465e+01
 1.0576800e+01   3.3965397e+01
 1.0582267e+01   3.4444235e+01
 1.0587733e+01   3.5036857e+01
 1.0593200e+01   3.6588933e+01
 1.0598667e+01   3.7808930e+01
 1.0604133e+01   4.0899604e+01
 1.0609600e+01   4.2816000e+01
 1.0615067e+01   4.6987152e+01
 1.0620533e+01   5.0174225e+01
 1.0626000e+01   5.3551537e+01
 1.0631467e+01   5.5089864e+01
 1.0636933e+01   5.6276105e+01
 1.0642400e+01   5.2716318e+01
 1.0647867e+01   5.0972318e+01
 1.0653333e+01   4.6470811e+01
 1.0658800e+01   4.3025034e+01
 1.0664267e+01   3.9766700e+01
 1.0669733e+01   3.7466456e+01
 1.0675200e+01   3.6155028e+01
 1.0680667e+01   3.5113136e+01
 1.0686133e+01   3.4641744e+01
 1.0691600e+01   3.4050674e+01
 1.0697067e+01   3.3787134e+01
 1.0702533e+01   3.3667234e+01
 1.0708000e+01   3.3719553e+01
 1.0713467e+01   3.3414846e+01
 1.0718933e+01   3.3512793e+01
 1.0724400e+01   3.3459801e+01
 1.0729867e+01   3.3374620e+01
 1.0735333e+01   3.3498112e+01
 1.0740800e+01   3.3343491e+01
 1.0746267e+01   3.3457068e+01
 1.0751733e+01   3.3293329e+01
 1.0757200e+01   3.3345926e+01
 1.0762667e+01   3.3363912e+01
 1.0768133e+01   3.3328350e+01
 1.0773600e+01   3.3258432e+01
 1.0779067e+01   3.3226093e+01
 1.0784533e+01   3.3273483e+01
 1.0790000e+01   3.3220738e+01
 1.0795467e+01   3.3221542e+01
 1.0800933e+01   3.3122086e+01
 1.0806400e+01   3.3268690e+01
 1.0811867e+01   3.3136870e+01
 1.0817333e+01   3.3295335e+01
 1.0822800e+01   3.3159091e+01
 1.0828267e+01   3.3437259e+01
 1.0833733e+01   3.3304554e+01
 1.0839200e+01   3.3368519e+01
 1.0844667e+01   3.3329035e+01
 1.0850133e+01   3.3408755e+01
 1.0855600e+01   3.3391086e+01
 1.0861067e+01   3.3420923e+01
 1.0866533e+01   3.3605422e+01
 1.0872000e+01   3.3734737e+01
 1.0877467e+01   3.4017454e+01
 1.0882933e+01   3.4569486e+01
 1.0888400e+01   3.5042650e+01
 1.0893867e+01   3.5993405e+01
 1.0899333e+01   3.6729962e+01
 1.0904800e+01   3.7822750e+01
 1.0910267e+01   3.8498286e+01
 1.0915733e+01   3.8588400e+01
 1.0921200e+01   3.8674535e+01
 1.0926667e+01   3.8210902e+01
 1.0932133e+01   3.7850738e+01
 1.0937600e+01   3.7210042e+01
 1.0943067e+01   3.6478970e+01
 1.0948533e+01   3.5745733e+01
 1.0954000e+01   3.5124037e+01
 1.0959467e+01   3.4635516e+01
 1.0964933e+01   3.4285905e+01
 1.0970400e+01   3.3956166e+01
 1.0975867e+01   3.4033413e+01
 1.0981333e+01   3.3703862e+01
 1.0986800e+01   3.3868879e+01
 1.0992267e+01   3.3779224e+01
 1.0997733e+01   3.3891455e+01
 1.1003200e+01   3.3872669e+01
 1.1008667e+01   3.3908348e+01
 1.1014133e+01   3.3738776e+01
 1.1019600e+01   3.3960838e+01
 1.1025067e+01   3.3953787e+01
 1.1030533e+01   3.3990008e+01
 1.1036000e+01   3.4023773e+01
 1.1041467e+01   3.4108412e+01
 1.1046933e+01   3.4125168e+01
 1.1052400e+01   3.4192225e+01
 1.1057867e+01   3.4367563e+01
 1.1063333e+01   3.4331682e+01
 1.1068800e+01   3.4404297e+01
 1.1074267e+01   3.4572749e+01
 1.1079733e+01   3.4495059e+01
 1.1085200e+01   3.4969789e+01
 1.1090667e+01   3.5038009e+01
 1.1096133e+01   3.6085616e+01
 1.1101600e+01   3.6530709e+01
 1.1107067e+01   3.8657574e+01
 1.1112533e+01   4.0793870e+01
 1.1118000e+01   4.5716928e+01
 1.1123467e+01   4.8776921e+01
 1.1128933e+01   5.5157160e+01
 1.1134400e+01   5.9658204e+01
 1.1139867e+01   6.2391772e+01
 1.1145333e+01   6.4728833e+01
 1.1150800e+01   6.4757355e+01
 1.1156267e+01   6.2992017e+01
 1.1161733e+01   5.9807915e+01
 1.1167200e+01   5.4893717e+01
 1.1172667e+01   4.9989821e+01
 1.1178133e+01   4.5251948e+01
 1.1183600e+01   4.1848464e+01
 1.1189067e+01   3.9469239e+01
 1.1194533e+01   3.7739193e+01
