PWDR ff_004561_sum_norm_dc_0.tif Azm= 352.fxye Bank 1
2-Theta Angle (Degrees)
Intensity
       1500
 3.0000000e+00   4.6743595e+01
 3.0054667e+00   4.6474050e+01
 3.0109333e+00   4.6326396e+01
 3.0164000e+00   4.6192123e+01
 3.0218667e+00   4.5831698e+01
 3.0273333e+00   4.5718881e+01
 3.0328000e+00   4.5847416e+01
 3.0382667e+00   4.5469635e+01
 3.0437333e+00   4.5177181e+01
 3.0492000e+00   4.5162506e+01
 3.0546667e+00   4.4693538e+01
 3.0601333e+00   4.4752126e+01
 3.0656000e+00   4.5693104e+01
 3.0710667e+00   4.3785486e+01
 3.0765333e+00   4.4140663e+01
 3.0820000e+00   4.3803015e+01
 3.0874667e+00   4.3404264e+01
 3.0929333e+00   4.3140278e+01
 3.0984000e+00   4.2984890e+01
 3.1038667e+00   4.3030663e+01
 3.1093333e+00   4.2660237e+01
 3.1148000e+00   4.2544177e+01
 3.1202667e+00   4.2464616e+01
 3.1257333e+00   4.2407104e+01
 3.1312000e+00   4.2134608e+01
 3.1366667e+00   4.2176475e+01
 3.1421333e+00   4.1750422e+01
 3.1476000e+00   4.1687127e+01
 3.1530667e+00   4.2105469e+01
 3.1585333e+00   4.1358442e+01
 3.1640000e+00   4.1547585e+01
 3.1694667e+00   4.1147571e+01
 3.1749333e+00   4.1015051e+01
 3.1804000e+00   4.0711700e+01
 3.1858667e+00   4.0992727e+01
 3.1913333e+00   4.0721934e+01
 3.1968000e+00   4.0587448e+01
 3.2022667e+00   4.0691018e+01
 3.2077333e+00   4.0418246e+01
 3.2132000e+00   4.0398456e+01
 3.2186667e+00   4.0178056e+01
 3.2241333e+00   4.0040380e+01
 3.2296000e+00   3.9998376e+01
 3.2350667e+00   3.9797960e+01
 3.2405333e+00   3.9727910e+01
 3.2460000e+00   3.9280313e+01
 3.2514667e+00   3.9425183e+01
 3.2569333e+00   3.9215463e+01
 3.2624000e+00   3.9208333e+01
 3.2678667e+00   3.9008378e+01
 3.2733333e+00   3.9160921e+01
 3.2788000e+00   3.8725435e+01
 3.2842667e+00   3.8732662e+01
 3.2897333e+00   3.8660829e+01
 3.2952000e+00   3.8450489e+01
 3.3006667e+00   3.8476205e+01
 3.3061333e+00   3.8388225e+01
 3.3116000e+00   3.8213478e+01
 3.3170667e+00   3.8305794e+01
 3.3225333e+00   3.8000964e+01
 3.3280000e+00   3.8183796e+01
 3.3334667e+00   3.7780198e+01
 3.3389333e+00   3.8149138e+01
 3.3444000e+00   3.7871058e+01
 3.3498667e+00   3.7849374e+01
 3.3553333e+00   3.7634582e+01
 3.3608000e+00   3.7630394e+01
 3.3662667e+00   3.7737091e+01
 3.3717333e+00   3.7555005e+01
 3.3772000e+00   3.7468558e+01
 3.3826667e+00   3.7596538e+01
 3.3881333e+00   3.7454096e+01
 3.3936000e+00   3.7575553e+01
 3.3990667e+00   3.7250455e+01
 3.4045333e+00   3.7337532e+01
 3.4100000e+00   3.7246806e+01
 3.4154667e+00   3.7248576e+01
 3.4209333e+00   3.7341641e+01
 3.4264000e+00   3.7246283e+01
 3.4318667e+00   3.7090361e+01
 3.4373333e+00   3.7072721e+01
 3.4428000e+00   3.7047705e+01
 3.4482667e+00   3.7043362e+01
 3.4537333e+00   3.7086007e+01
 3.4592000e+00   3.6874432e+01
 3.4646667e+00   3.6859148e+01
 3.4701333e+00   3.7027804e+01
 3.4756000e+00   3.6908539e+01
 3.4810667e+00   3.6890197e+01
 3.4865333e+00   3.6712100e+01
 3.4920000e+00   3.6947525e+01
 3.4974667e+00   3.6725001e+01
 3.5029333e+00   3.6851073e+01
 3.5084000e+00   3.6713522e+01
 3.5138667e+00   3.6618747e+01
 3.5193333e+00   3.6643270e+01
 3.5248000e+00   3.6769160e+01
 3.5302667e+00   3.6782969e+01
 3.5357333e+00   3.6610607e+01
 3.5412000e+00   3.6857503e+01
 3.5466667e+00   3.6721514e+01
 3.5521333e+00   3.6806368e+01
 3.5576000e+00   3.6822159e+01
 3.5630667e+00   3.6908141e+01
 3.5685333e+00   3.6948674e+01
 3.5740000e+00   3.7007517e+01
 3.5794667e+00   3.6740010e+01
 3.5849333e+00   3.6502700e+01
 3.5904000e+00   3.6509731e+01
 3.5958667e+00   3.6595099e+01
 3.6013333e+00   3.6483562e+01
 3.6068000e+00   3.6460441e+01
 3.6122667e+00   3.6413923e+01
 3.6177333e+00   3.6462117e+01
 3.6232000e+00   3.6445949e+01
 3.6286667e+00   3.6401780e+01
 3.6341333e+00   3.6350859e+01
 3.6396000e+00   3.6385628e+01
 3.6450667e+00   3.6358196e+01
 3.6505333e+00   3.6416095e+01
 3.6560000e+00   3.6586534e+01
 3.6614667e+00   3.6550822e+01
 3.6669333e+00   3.6754603e+01
 3.6724000e+00   3.6678242e+01
 3.6778667e+00   3.6625454e+01
 3.6833333e+00   3.6794335e+01
 3.6888000e+00   3.6634683e+01
 3.6942667e+00   3.6835776e+01
 3.6997333e+00   3.6663205e+01
 3.7052000e+00   3.6894753e+01
 3.7106667e+00   3.6741184e+01
 3.7161333e+00   3.6744037e+01
 3.7216000e+00   3.6820175e+01
 3.7270667e+00   3.6800554e+01
 3.7325333e+00   3.6852551e+01
 3.7380000e+00   3.6899901e+01
 3.7434667e+00   3.6984232e+01
 3.7489333e+00   3.7003769e+01
 3.7544000e+00   3.6859568e+01
 3.7598667e+00   3.7045198e+01
 3.7653333e+00   3.6944008e+01
 3.7708000e+00   3.7030524e+01
 3.7762667e+00   3.7133250e+01
 3.7817333e+00   3.7158102e+01
 3.7872000e+00   3.7206443e+01
 3.7926667e+00   3.7182601e+01
 3.7981333e+00   3.7457795e+01
 3.8036000e+00   3.7420970e+01
 3.8090667e+00   3.7492172e+01
 3.8145333e+00   3.7385740e+01
 3.8200000e+00   3.7417281e+01
 3.8254667e+00   3.7456926e+01
 3.8309333e+00   3.7678090e+01
 3.8364000e+00   3.7581198e+01
 3.8418667e+00   3.7645849e+01
 3.8473333e+00   3.7982759e+01
 3.8528000e+00   3.7956134e+01
 3.8582667e+00   3.8019026e+01
 3.8637333e+00   3.7927613e+01
 3.8692000e+00   3.8130947e+01
 3.8746667e+00   3.8241708e+01
 3.8801333e+00   3.8529798e+01
 3.8856000e+00   3.8329207e+01
 3.8910667e+00   3.8665372e+01
 3.8965333e+00   3.8652195e+01
 3.9020000e+00   3.8966623e+01
 3.9074667e+00   3.9103854e+01
 3.9129333e+00   3.9390098e+01
 3.9184000e+00   3.9501035e+01
 3.9238667e+00   3.9664447e+01
 3.9293333e+00   3.9693572e+01
 3.9348000e+00   3.9566918e+01
 3.9402667e+00   3.9834265e+01
 3.9457333e+00   3.9652448e+01
 3.9512000e+00   3.9782924e+01
 3.9566667e+00   3.9894028e+01
 3.9621333e+00   3.9993407e+01
 3.9676000e+00   3.9761320e+01
 3.9730667e+00   3.9962256e+01
 3.9785333e+00   4.0059886e+01
 3.9840000e+00   4.0102630e+01
 3.9894667e+00   4.0230101e+01
 3.9949333e+00   4.0337550e+01
 4.0004000e+00   4.0379777e+01
 4.0058667e+00   4.0507821e+01
 4.0113333e+00   4.0651891e+01
 4.0168000e+00   4.0887377e+01
 4.0222667e+00   4.1028669e+01
 4.0277333e+00   4.1216266e+01
 4.0332000e+00   4.1706037e+01
 4.0386667e+00   4.1690310e+01
 4.0441333e+00   4.2425047e+01
 4.0496000e+00   4.3063308e+01
 4.0550667e+00   4.3857435e+01
 4.0605333e+00   4.5551427e+01
 4.0660000e+00   4.9810823e+01
 4.0714667e+00   5.4136016e+01
 4.0769333e+00   6.4582522e+01
 4.0824000e+00   8.0082976e+01
 4.0878667e+00   9.8574981e+01
 4.0933333e+00   1.3061010e+02
 4.0988000e+00   1.8854322e+02
 4.1042667e+00   2.0416249e+02
 4.1097333e+00   2.4550380e+02
 4.1152000e+00   2.3811275e+02
 4.1206667e+00   2.6007292e+02
 4.1261333e+00   2.4099346e+02
 4.1316000e+00   2.3430761e+02
 4.1370667e+00   2.3156334e+02
 4.1425333e+00   2.1972805e+02
 4.1480000e+00   1.5484861e+02
 4.1534667e+00   1.3849516e+02
 4.1589333e+00   9.4761624e+01
 4.1644000e+00   6.7621975e+01
 4.1698667e+00   5.7910564e+01
 4.1753333e+00   5.1235518e+01
 4.1808000e+00   4.8370162e+01
 4.1862667e+00   4.7337220e+01
 4.1917333e+00   4.6444431e+01
 4.1972000e+00   4.6207372e+01
 4.2026667e+00   4.5872952e+01
 4.2081333e+00   4.5830234e+01
 4.2136000e+00   4.5761036e+01
 4.2190667e+00   4.5777153e+01
 4.2245333e+00   4.5424345e+01
 4.2300000e+00   4.5689962e+01
 4.2354667e+00   4.5312988e+01
 4.2409333e+00   4.5507504e+01
 4.2464000e+00   4.5516465e+01
 4.2518667e+00   4.5536078e+01
 4.2573333e+00   4.5673555e+01
 4.2628000e+00   4.5777703e+01
 4.2682667e+00   4.6038648e+01
 4.2737333e+00   4.5673490e+01
 4.2792000e+00   4.6134704e+01
 4.2846667e+00   4.5827272e+01
 4.2901333e+00   4.6483095e+01
 4.2956000e+00   4.5989538e+01
 4.3010667e+00   4.6902050e+01
 4.3065333e+00   4.6179589e+01
 4.3120000e+00   4.9026595e+01
 4.3174667e+00   4.6389452e+01
 4.3229333e+00   4.8725696e+01
 4.3284000e+00   4.6711554e+01
 4.3338667e+00   4.7503417e+01
 4.3393333e+00   4.7109735e+01
 4.3448000e+00   4.7601670e+01
 4.3502667e+00   4.7614842e+01
 4.3557333e+00   4.7719843e+01
 4.3612000e+00   4.8209006e+01
 4.3666667e+00   4.8140596e+01
 4.3721333e+00   4.9118290e+01
 4.3776000e+00   4.8666443e+01
 4.3830667e+00   4.9880497e+01
 4.3885333e+00   4.9706098e+01
 4.3940000e+00   5.1228931e+01
 4.3994667e+00   5.1847677e+01
 4.4049333e+00   5.3938191e+01
 4.4104000e+00   5.7602612e+01
 4.4158667e+00   6.5042178e+01
 4.4213333e+00   7.9279608e+01
 4.4268000e+00   9.9713764e+01
 4.4322667e+00   1.3761861e+02
 4.4377333e+00   1.7334463e+02
 4.4432000e+00   2.0505321e+02
 4.4486667e+00   2.2759859e+02
 4.4541333e+00   2.4541042e+02
 4.4596000e+00   2.8029797e+02
 4.4650667e+00   2.9280142e+02
 4.4705333e+00   3.3982450e+02
 4.4760000e+00   3.6513309e+02
 4.4814667e+00   3.2549212e+02
 4.4869333e+00   3.0512793e+02
 4.4924000e+00   1.6518179e+02
 4.4978667e+00   1.3963244e+02
 4.5033333e+00   8.5877550e+01
 4.5088000e+00   9.3088004e+01
 4.5142667e+00   1.0385346e+02
 4.5197333e+00   1.2617019e+02
 4.5252000e+00   1.5262715e+02
 4.5306667e+00   1.8044362e+02
 4.5361333e+00   1.9436035e+02
 4.5416000e+00   2.0586640e+02
 4.5470667e+00   2.1544948e+02
 4.5525333e+00   2.5987307e+02
 4.5580000e+00   2.4578832e+02
 4.5634667e+00   2.6570838e+02
 4.5689333e+00   2.9310823e+02
 4.5744000e+00   2.1398822e+02
 4.5798667e+00   2.0982185e+02
 4.5853333e+00   1.1890757e+02
 4.5908000e+00   1.1021335e+02
 4.5962667e+00   7.7340668e+01
 4.6017333e+00   7.6758734e+01
 4.6072000e+00   6.9311214e+01
 4.6126667e+00   6.9622859e+01
 4.6181333e+00   7.1327016e+01
 4.6236000e+00   7.6383876e+01
 4.6290667e+00   8.7243351e+01
 4.6345333e+00   1.1228819e+02
 4.6400000e+00   1.6416695e+02
 4.6454667e+00   2.6128798e+02
 4.6509333e+00   3.7758311e+02
 4.6564000e+00   5.0803824e+02
 4.6618667e+00   6.5614485e+02
 4.6673333e+00   7.4223640e+02
 4.6728000e+00   7.9439411e+02
 4.6782667e+00   8.3319921e+02
 4.6837333e+00   8.5454214e+02
 4.6892000e+00   8.5162863e+02
 4.6946667e+00   8.9383651e+02
 4.7001333e+00   7.3183331e+02
 4.7056000e+00   6.9403531e+02
 4.7110667e+00   4.2836505e+02
 4.7165333e+00   3.5855614e+02
 4.7220000e+00   2.0587589e+02
 4.7274667e+00   1.8257167e+02
 4.7329333e+00   1.1376776e+02
 4.7384000e+00   9.1664140e+01
 4.7438667e+00   7.6869886e+01
 4.7493333e+00   6.9060371e+01
 4.7548000e+00   6.8394302e+01
 4.7602667e+00   6.3022775e+01
 4.7657333e+00   6.5228064e+01
 4.7712000e+00   6.1246982e+01
 4.7766667e+00   6.3037255e+01
 4.7821333e+00   6.1046115e+01
 4.7876000e+00   6.1757184e+01
 4.7930667e+00   6.1291204e+01
 4.7985333e+00   6.0761135e+01
 4.8040000e+00   6.2903382e+01
 4.8094667e+00   5.8651030e+01
 4.8149333e+00   6.4418686e+01
 4.8204000e+00   5.9193021e+01
 4.8258667e+00   6.4324312e+01
 4.8313333e+00   5.9912904e+01
 4.8368000e+00   6.5259257e+01
 4.8422667e+00   6.0752009e+01
 4.8477333e+00   6.5485054e+01
 4.8532000e+00   6.2819902e+01
 4.8586667e+00   6.5493294e+01
 4.8641333e+00   6.5285810e+01
 4.8696000e+00   6.6126701e+01
 4.8750667e+00   6.8098250e+01
 4.8805333e+00   6.5760124e+01
 4.8860000e+00   7.2227630e+01
 4.8914667e+00   6.4912629e+01
 4.8969333e+00   7.6100062e+01
 4.9024000e+00   6.7836040e+01
 4.9078667e+00   7.9371116e+01
 4.9133333e+00   7.1597055e+01
 4.9188000e+00   8.4648743e+01
 4.9242667e+00   7.9644146e+01
 4.9297333e+00   9.2799649e+01
 4.9352000e+00   1.0764432e+02
 4.9406667e+00   1.1395049e+02
 4.9461333e+00   1.5093111e+02
 4.9516000e+00   1.5363725e+02
 4.9570667e+00   2.3857788e+02
 4.9625333e+00   2.4011442e+02
 4.9680000e+00   2.7502549e+02
 4.9734667e+00   3.7743448e+02
 4.9789333e+00   3.6469243e+02
 4.9844000e+00   4.6794364e+02
 4.9898667e+00   5.1502019e+02
 4.9953333e+00   5.3579255e+02
 5.0008000e+00   5.8457465e+02
 5.0062667e+00   5.8084055e+02
 5.0117333e+00   5.6054975e+02
 5.0172000e+00   4.8146161e+02
 5.0226667e+00   4.0717723e+02
 5.0281333e+00   3.9505073e+02
 5.0336000e+00   2.5614223e+02
 5.0390667e+00   2.8582561e+02
 5.0445333e+00   1.7044870e+02
 5.0500000e+00   1.9237028e+02
 5.0554667e+00   1.0563989e+02
 5.0609333e+00   1.2079195e+02
 5.0664000e+00   8.0256927e+01
 5.0718667e+00   9.8448448e+01
 5.0773333e+00   7.1606317e+01
 5.0828000e+00   8.6077734e+01
 5.0882667e+00   6.9667617e+01
 5.0937333e+00   7.7563229e+01
 5.0992000e+00   6.8572470e+01
 5.1046667e+00   7.1675568e+01
 5.1101333e+00   6.6833933e+01
 5.1156000e+00   6.6951413e+01
 5.1210667e+00   6.5090487e+01
 5.1265333e+00   6.3927444e+01
 5.1320000e+00   6.3578498e+01
 5.1374667e+00   6.1455171e+01
 5.1429333e+00   6.2137105e+01
 5.1484000e+00   5.8376350e+01
 5.1538667e+00   6.0961930e+01
 5.1593333e+00   5.5241930e+01
 5.1648000e+00   6.1022819e+01
 5.1702667e+00   5.3570758e+01
 5.1757333e+00   5.9684696e+01
 5.1812000e+00   5.2803084e+01
 5.1866667e+00   5.7224613e+01
 5.1921333e+00   5.2469384e+01
 5.1976000e+00   5.5407873e+01
 5.2030667e+00   5.1754565e+01
 5.2085333e+00   5.4105790e+01
 5.2140000e+00   5.1037677e+01
 5.2194667e+00   5.2633414e+01
 5.2249333e+00   5.0930118e+01
 5.2304000e+00   5.0900271e+01
 5.2358667e+00   5.0665243e+01
 5.2413333e+00   4.9726399e+01
 5.2468000e+00   5.0329100e+01
 5.2522667e+00   4.7853317e+01
 5.2577333e+00   5.1034538e+01
 5.2632000e+00   4.7282537e+01
 5.2686667e+00   4.9734968e+01
 5.2741333e+00   4.7227257e+01
 5.2796000e+00   4.8927962e+01
 5.2850667e+00   4.6791567e+01
 5.2905333e+00   4.8162534e+01
 5.2960000e+00   4.6276815e+01
 5.3014667e+00   4.7372064e+01
 5.3069333e+00   4.6393655e+01
 5.3124000e+00   4.6753286e+01
 5.3178667e+00   4.5993641e+01
 5.3233333e+00   4.6434786e+01
 5.3288000e+00   4.5782468e+01
 5.3342667e+00   4.5359840e+01
 5.3397333e+00   4.5872059e+01
 5.3452000e+00   4.4254054e+01
 5.3506667e+00   4.6065812e+01
 5.3561333e+00   4.4212966e+01
 5.3616000e+00   4.5455551e+01
 5.3670667e+00   4.4090514e+01
 5.3725333e+00   4.4942014e+01
 5.3780000e+00   4.3682877e+01
 5.3834667e+00   4.4391136e+01
 5.3889333e+00   4.3668268e+01
 5.3944000e+00   4.3983977e+01
 5.3998667e+00   4.3496294e+01
 5.4053333e+00   4.3673850e+01
 5.4108000e+00   4.3139550e+01
 5.4162667e+00   4.3038389e+01
 5.4217333e+00   4.3105105e+01
 5.4272000e+00   4.2600649e+01
 5.4326667e+00   4.3326909e+01
 5.4381333e+00   4.2127838e+01
 5.4436000e+00   4.3234084e+01
 5.4490667e+00   4.2096145e+01
 5.4545333e+00   4.2870708e+01
 5.4600000e+00   4.2044526e+01
 5.4654667e+00   4.2757157e+01
 5.4709333e+00   4.1805163e+01
 5.4764000e+00   4.2322428e+01
 5.4818667e+00   4.1944384e+01
 5.4873333e+00   4.2100163e+01
 5.4928000e+00   4.1738537e+01
 5.4982667e+00   4.2036776e+01
 5.5037333e+00   4.1875771e+01
 5.5092000e+00   4.1596659e+01
 5.5146667e+00   4.2029252e+01
 5.5201333e+00   4.1413309e+01
 5.5256000e+00   4.1940160e+01
 5.5310667e+00   4.1196578e+01
 5.5365333e+00   4.2338372e+01
 5.5420000e+00   4.1538562e+01
 5.5474667e+00   4.5796081e+01
 5.5529333e+00   4.1440164e+01
 5.5584000e+00   4.2980831e+01
 5.5638667e+00   4.1203088e+01
 5.5693333e+00   4.1663176e+01
 5.5748000e+00   4.1088355e+01
 5.5802667e+00   4.1212129e+01
 5.5857333e+00   4.1035165e+01
 5.5912000e+00   4.1145917e+01
 5.5966667e+00   4.1125271e+01
 5.6021333e+00   4.1061504e+01
 5.6076000e+00   4.1341492e+01
 5.6130667e+00   4.0674071e+01
 5.6185333e+00   4.1353434e+01
 5.6240000e+00   4.0817271e+01
 5.6294667e+00   4.1180092e+01
 5.6349333e+00   4.0821339e+01
 5.6404000e+00   4.1167899e+01
 5.6458667e+00   4.0860742e+01
 5.6513333e+00   4.0998126e+01
 5.6568000e+00   4.0862619e+01
 5.6622667e+00   4.1302049e+01
 5.6677333e+00   4.1271584e+01
 5.6732000e+00   4.1321971e+01
 5.6786667e+00   4.2152436e+01
 5.6841333e+00   4.3114247e+01
 5.6896000e+00   4.3435102e+01
 5.6950667e+00   4.8947393e+01
 5.7005333e+00   4.6117956e+01
 5.7060000e+00   4.9192670e+01
 5.7114667e+00   5.2927744e+01
 5.7169333e+00   6.4001451e+01
 5.7224000e+00   6.7645995e+01
 5.7278667e+00   8.1624687e+01
 5.7333333e+00   1.1625461e+02
 5.7388000e+00   1.1136846e+02
 5.7442667e+00   1.2125764e+02
 5.7497333e+00   1.5253001e+02
 5.7552000e+00   1.4137598e+02
 5.7606667e+00   1.4502030e+02
 5.7661333e+00   1.7331366e+02
 5.7716000e+00   1.5661160e+02
 5.7770667e+00   1.8512955e+02
 5.7825333e+00   1.3619156e+02
 5.7880000e+00   1.2202545e+02
 5.7934667e+00   1.1541619e+02
 5.7989333e+00   8.7210427e+01
 5.8044000e+00   9.3070812e+01
 5.8098667e+00   7.9423652e+01
 5.8153333e+00   7.1818907e+01
 5.8208000e+00   5.3403405e+01
 5.8262667e+00   5.0179656e+01
 5.8317333e+00   4.4878365e+01
 5.8372000e+00   4.2791237e+01
 5.8426667e+00   4.1766910e+01
 5.8481333e+00   4.0912350e+01
 5.8536000e+00   4.0846041e+01
 5.8590667e+00   4.0214754e+01
 5.8645333e+00   4.0510680e+01
 5.8700000e+00   3.9664690e+01
 5.8754667e+00   3.9900209e+01
 5.8809333e+00   3.9471850e+01
 5.8864000e+00   3.9597733e+01
 5.8918667e+00   3.9285974e+01
 5.8973333e+00   3.9396276e+01
 5.9028000e+00   3.9002503e+01
 5.9082667e+00   3.9032186e+01
 5.9137333e+00   3.8861944e+01
 5.9192000e+00   3.8810037e+01
 5.9246667e+00   3.8794696e+01
 5.9301333e+00   3.8883415e+01
 5.9356000e+00   3.8545720e+01
 5.9410667e+00   3.8776977e+01
 5.9465333e+00   3.8611789e+01
 5.9520000e+00   3.8571780e+01
 5.9574667e+00   3.8688609e+01
 5.9629333e+00   3.8763519e+01
 5.9684000e+00   3.8818514e+01
 5.9738667e+00   3.8710494e+01
 5.9793333e+00   3.8858525e+01
 5.9848000e+00   3.8573261e+01
 5.9902667e+00   3.8911161e+01
 5.9957333e+00   3.8926437e+01
 6.0012000e+00   3.9206941e+01
 6.0066667e+00   3.9449078e+01
 6.0121333e+00   3.9936865e+01
 6.0176000e+00   4.0956868e+01
 6.0230667e+00   4.2459561e+01
 6.0285333e+00   4.5510423e+01
 6.0340000e+00   5.2946018e+01
 6.0394667e+00   6.1629556e+01
 6.0449333e+00   7.3410467e+01
 6.0504000e+00   9.6671792e+01
 6.0558667e+00   1.1739326e+02
 6.0613333e+00   1.3873242e+02
 6.0668000e+00   1.5203766e+02
 6.0722667e+00   1.6287224e+02
 6.0777333e+00   1.5954997e+02
 6.0832000e+00   1.5713709e+02
 6.0886667e+00   1.3543159e+02
 6.0941333e+00   1.1726470e+02
 6.0996000e+00   8.5197929e+01
 6.1050667e+00   7.5980861e+01
 6.1105333e+00   6.0369794e+01
 6.1160000e+00   5.6228966e+01
 6.1214667e+00   4.8206029e+01
 6.1269333e+00   4.4800187e+01
 6.1324000e+00   4.1223071e+01
 6.1378667e+00   3.9762265e+01
 6.1433333e+00   3.9202712e+01
 6.1488000e+00   3.8654195e+01
 6.1542667e+00   3.8560258e+01
 6.1597333e+00   3.8217586e+01
 6.1652000e+00   3.7969696e+01
 6.1706667e+00   3.7751032e+01
 6.1761333e+00   3.7871119e+01
 6.1816000e+00   3.7430814e+01
 6.1870667e+00   3.7684181e+01
 6.1925333e+00   3.7310095e+01
 6.1980000e+00   3.7583341e+01
 6.2034667e+00   3.7182910e+01
 6.2089333e+00   3.7442306e+01
 6.2144000e+00   3.6944163e+01
 6.2198667e+00   3.7379684e+01
 6.2253333e+00   3.7060486e+01
 6.2308000e+00   3.7222736e+01
 6.2362667e+00   3.7061850e+01
 6.2417333e+00   3.7019116e+01
 6.2472000e+00   3.7062535e+01
 6.2526667e+00   3.7003507e+01
 6.2581333e+00   3.7216787e+01
 6.2636000e+00   3.7236019e+01
 6.2690667e+00   3.7827846e+01
 6.2745333e+00   3.7489959e+01
 6.2800000e+00   3.7392133e+01
 6.2854667e+00   3.7440116e+01
 6.2909333e+00   3.7083866e+01
 6.2964000e+00   3.6900025e+01
 6.3018667e+00   3.6931766e+01
 6.3073333e+00   3.6610260e+01
 6.3128000e+00   3.6870819e+01
 6.3182667e+00   3.6568769e+01
 6.3237333e+00   3.6927824e+01
 6.3292000e+00   3.6797926e+01
 6.3346667e+00   3.6898838e+01
 6.3401333e+00   3.7136917e+01
 6.3456000e+00   3.6603575e+01
 6.3510667e+00   3.6764957e+01
 6.3565333e+00   3.6621610e+01
 6.3620000e+00   3.6812454e+01
 6.3674667e+00   3.6693551e+01
 6.3729333e+00   3.6953431e+01
 6.3784000e+00   3.7205967e+01
 6.3838667e+00   3.7706269e+01
 6.3893333e+00   3.8516460e+01
 6.3948000e+00   3.9590721e+01
 6.4002667e+00   4.1135039e+01
 6.4057333e+00   4.2768505e+01
 6.4112000e+00   4.5478164e+01
 6.4166667e+00   5.0456880e+01
 6.4221333e+00   5.5660140e+01
 6.4276000e+00   6.3274725e+01
 6.4330667e+00   6.8819106e+01
 6.4385333e+00   6.9590424e+01
 6.4440000e+00   6.6244822e+01
 6.4494667e+00   6.2146940e+01
 6.4549333e+00   5.4437017e+01
 6.4604000e+00   4.9167957e+01
 6.4658667e+00   4.5496072e+01
 6.4713333e+00   4.1894350e+01
 6.4768000e+00   4.0256076e+01
 6.4822667e+00   3.8687394e+01
 6.4877333e+00   3.8211486e+01
 6.4932000e+00   3.7413283e+01
 6.4986667e+00   3.7359016e+01
 6.5041333e+00   3.6763994e+01
 6.5096000e+00   3.6889434e+01
 6.5150667e+00   3.6632334e+01
 6.5205333e+00   3.6615808e+01
 6.5260000e+00   3.6569256e+01
 6.5314667e+00   3.6536284e+01
 6.5369333e+00   3.6611610e+01
 6.5424000e+00   3.6318271e+01
 6.5478667e+00   3.6566185e+01
 6.5533333e+00   3.6351339e+01
 6.5588000e+00   3.6488953e+01
 6.5642667e+00   3.6224503e+01
 6.5697333e+00   3.6439590e+01
 6.5752000e+00   3.6266236e+01
 6.5806667e+00   3.6488242e+01
 6.5861333e+00   3.6273106e+01
 6.5916000e+00   3.6243072e+01
 6.5970667e+00   3.6290334e+01
 6.6025333e+00   3.6310562e+01
 6.6080000e+00   3.6476149e+01
 6.6134667e+00   3.6288180e+01
 6.6189333e+00   3.6523947e+01
 6.6244000e+00   3.6189805e+01
 6.6298667e+00   3.6494338e+01
 6.6353333e+00   3.6237421e+01
 6.6408000e+00   3.6456984e+01
 6.6462667e+00   3.6242732e+01
 6.6517333e+00   3.6646453e+01
 6.6572000e+00   3.6229539e+01
 6.6626667e+00   3.6674390e+01
 6.6681333e+00   3.6177864e+01
 6.6736000e+00   3.6714126e+01
 6.6790667e+00   3.6204820e+01
 6.6845333e+00   3.6804885e+01
 6.6900000e+00   3.6188483e+01
 6.6954667e+00   3.6722220e+01
 6.7009333e+00   3.6421286e+01
 6.7064000e+00   3.6742460e+01
 6.7118667e+00   3.6578039e+01
 6.7173333e+00   3.6717102e+01
 6.7228000e+00   3.6613399e+01
 6.7282667e+00   3.6758021e+01
 6.7337333e+00   3.6535404e+01
 6.7392000e+00   3.6918566e+01
 6.7446667e+00   3.6629478e+01
 6.7501333e+00   3.6993467e+01
 6.7556000e+00   3.6691731e+01
 6.7610667e+00   3.6947596e+01
 6.7665333e+00   3.6778072e+01
 6.7720000e+00   3.7058214e+01
 6.7774667e+00   3.6962956e+01
 6.7829333e+00   3.7095528e+01
 6.7884000e+00   3.7108739e+01
 6.7938667e+00   3.7046373e+01
 6.7993333e+00   3.7211015e+01
 6.8048000e+00   3.7139749e+01
 6.8102667e+00   3.7279168e+01
 6.8157333e+00   3.7379280e+01
 6.8212000e+00   3.7223679e+01
 6.8266667e+00   3.7444298e+01
 6.8321333e+00   3.7358451e+01
 6.8376000e+00   3.7459997e+01
 6.8430667e+00   3.7450176e+01
 6.8485333e+00   3.7568366e+01
 6.8540000e+00   3.7490808e+01
 6.8594667e+00   3.7522850e+01
 6.8649333e+00   3.7599830e+01
 6.8704000e+00   3.7619844e+01
 6.8758667e+00   3.7626707e+01
 6.8813333e+00   3.7890840e+01
 6.8868000e+00   3.7686650e+01
 6.8922667e+00   3.7996554e+01
 6.8977333e+00   3.7715776e+01
 6.9032000e+00   3.8062502e+01
 6.9086667e+00   3.7922615e+01
 6.9141333e+00   3.8278815e+01
 6.9196000e+00   3.8193868e+01
 6.9250667e+00   3.8308194e+01
 6.9305333e+00   3.8234422e+01
 6.9360000e+00   3.8399271e+01
 6.9414667e+00   3.8373178e+01
 6.9469333e+00   3.8606619e+01
 6.9524000e+00   3.8620557e+01
 6.9578667e+00   3.8761879e+01
 6.9633333e+00   3.8633140e+01
 6.9688000e+00   3.8937771e+01
 6.9742667e+00   3.8875172e+01
 6.9797333e+00   3.9037381e+01
 6.9852000e+00   3.9110832e+01
 6.9906667e+00   3.9252475e+01
 6.9961333e+00   3.9360475e+01
 7.0016000e+00   3.9568940e+01
 7.0070667e+00   3.9686119e+01
 7.0125333e+00   3.9670740e+01
 7.0180000e+00   3.9881919e+01
 7.0234667e+00   4.0454689e+01
 7.0289333e+00   3.9928310e+01
 7.0344000e+00   4.1824843e+01
 7.0398667e+00   4.0343333e+01
 7.0453333e+00   4.1024810e+01
 7.0508000e+00   4.0624213e+01
 7.0562667e+00   4.1098829e+01
 7.0617333e+00   4.1131291e+01
 7.0672000e+00   4.1442846e+01
 7.0726667e+00   4.2147241e+01
 7.0781333e+00   4.3154335e+01
 7.0836000e+00   4.3682159e+01
 7.0890667e+00   4.7289507e+01
 7.0945333e+00   5.1034137e+01
 7.1000000e+00   5.4021773e+01
 7.1054667e+00   6.7332360e+01
 7.1109333e+00   7.5850609e+01
 7.1164000e+00   9.3403672e+01
 7.1218667e+00   1.1130668e+02
 7.1273333e+00   1.3360285e+02
 7.1328000e+00   1.6622091e+02
 7.1382667e+00   2.0023529e+02
 7.1437333e+00   1.7910385e+02
 7.1492000e+00   2.0176025e+02
 7.1546667e+00   1.6513801e+02
 7.1601333e+00   1.2051487e+02
 7.1656000e+00   1.0155043e+02
 7.1710667e+00   8.4004335e+01
 7.1765333e+00   6.8070551e+01
 7.1820000e+00   6.0698890e+01
 7.1874667e+00   5.3148915e+01
 7.1929333e+00   4.7864968e+01
 7.1984000e+00   4.5240885e+01
 7.2038667e+00   4.3788386e+01
 7.2093333e+00   4.2823078e+01
 7.2148000e+00   4.2692586e+01
 7.2202667e+00   4.2155097e+01
 7.2257333e+00   4.1885249e+01
 7.2312000e+00   4.1742533e+01
 7.2366667e+00   4.1645710e+01
 7.2421333e+00   4.1419721e+01
 7.2476000e+00   4.1392384e+01
 7.2530667e+00   4.1389924e+01
 7.2585333e+00   4.1201148e+01
 7.2640000e+00   4.1245962e+01
 7.2694667e+00   4.1187876e+01
 7.2749333e+00   4.1004506e+01
 7.2804000e+00   4.1248494e+01
 7.2858667e+00   4.1209263e+01
 7.2913333e+00   4.1177212e+01
 7.2968000e+00   4.1086639e+01
 7.3022667e+00   4.1232003e+01
 7.3077333e+00   4.1049294e+01
 7.3132000e+00   4.0996922e+01
 7.3186667e+00   4.0995223e+01
 7.3241333e+00   4.1048373e+01
 7.3296000e+00   4.0920696e+01
 7.3350667e+00   4.0946455e+01
 7.3405333e+00   4.0954702e+01
 7.3460000e+00   4.1109766e+01
 7.3514667e+00   4.0750725e+01
 7.3569333e+00   4.1070295e+01
 7.3624000e+00   4.0656123e+01
 7.3678667e+00   4.1172141e+01
 7.3733333e+00   4.0720080e+01
 7.3788000e+00   4.0854187e+01
 7.3842667e+00   4.0804902e+01
 7.3897333e+00   4.0873119e+01
 7.3952000e+00   4.0930072e+01
 7.4006667e+00   4.0846602e+01
 7.4061333e+00   4.0949877e+01
 7.4116000e+00   4.0917900e+01
 7.4170667e+00   4.0996256e+01
 7.4225333e+00   4.1047477e+01
 7.4280000e+00   4.1035324e+01
 7.4334667e+00   4.1039196e+01
 7.4389333e+00   4.1068187e+01
 7.4444000e+00   4.1044754e+01
 7.4498667e+00   4.1132604e+01
 7.4553333e+00   4.0862215e+01
 7.4608000e+00   4.1296654e+01
 7.4662667e+00   4.1175104e+01
 7.4717333e+00   4.1244087e+01
 7.4772000e+00   4.1172149e+01
 7.4826667e+00   4.1326704e+01
 7.4881333e+00   4.1242473e+01
 7.4936000e+00   4.1388398e+01
 7.4990667e+00   4.1373311e+01
 7.5045333e+00   4.1358339e+01
 7.5100000e+00   4.1553714e+01
 7.5154667e+00   4.1391589e+01
 7.5209333e+00   4.1677635e+01
 7.5264000e+00   4.1314437e+01
 7.5318667e+00   4.1577906e+01
 7.5373333e+00   4.1507239e+01
 7.5428000e+00   4.1612164e+01
 7.5482667e+00   4.1491482e+01
 7.5537333e+00   4.1826149e+01
 7.5592000e+00   4.1679326e+01
 7.5646667e+00   4.1876863e+01
 7.5701333e+00   4.1626158e+01
 7.5756000e+00   4.1761665e+01
 7.5810667e+00   4.1720598e+01
 7.5865333e+00   4.2024630e+01
 7.5920000e+00   4.2022492e+01
 7.5974667e+00   4.2193170e+01
 7.6029333e+00   4.2027665e+01
 7.6084000e+00   4.2036277e+01
 7.6138667e+00   4.2362287e+01
 7.6193333e+00   4.2220499e+01
 7.6248000e+00   4.2404032e+01
 7.6302667e+00   4.2171408e+01
 7.6357333e+00   4.2506218e+01
 7.6412000e+00   4.2404783e+01
 7.6466667e+00   4.2654231e+01
 7.6521333e+00   4.2585689e+01
 7.6576000e+00   4.2681314e+01
 7.6630667e+00   4.2667103e+01
 7.6685333e+00   4.2988131e+01
 7.6740000e+00   4.2736090e+01
 7.6794667e+00   4.3238790e+01
 7.6849333e+00   4.3055859e+01
 7.6904000e+00   4.3263020e+01
 7.6958667e+00   4.3357245e+01
 7.7013333e+00   4.3521641e+01
 7.7068000e+00   4.3412764e+01
 7.7122667e+00   4.3597367e+01
 7.7177333e+00   4.3719389e+01
 7.7232000e+00   4.3516017e+01
 7.7286667e+00   4.3943280e+01
 7.7341333e+00   4.3876112e+01
 7.7396000e+00   4.4100429e+01
 7.7450667e+00   4.4268723e+01
 7.7505333e+00   4.4521961e+01
 7.7560000e+00   4.4431257e+01
 7.7614667e+00   4.4834036e+01
 7.7669333e+00   4.5022278e+01
 7.7724000e+00   4.5388117e+01
 7.7778667e+00   4.5271586e+01
 7.7833333e+00   4.5840411e+01
 7.7888000e+00   4.6082087e+01
 7.7942667e+00   4.6333878e+01
 7.7997333e+00   4.7479699e+01
 7.8052000e+00   5.0586751e+01
 7.8106667e+00   4.8568115e+01
 7.8161333e+00   5.3275839e+01
 7.8216000e+00   5.4648529e+01
 7.8270667e+00   5.9700468e+01
 7.8325333e+00   7.0311671e+01
 7.8380000e+00   8.5555928e+01
 7.8434667e+00   1.0359091e+02
 7.8489333e+00   1.2474319e+02
 7.8544000e+00   1.4160384e+02
 7.8598667e+00   1.6105854e+02
 7.8653333e+00   1.7654373e+02
 7.8708000e+00   1.8804243e+02
 7.8762667e+00   1.8568461e+02
 7.8817333e+00   1.7990735e+02
 7.8872000e+00   1.5577292e+02
 7.8926667e+00   1.2734067e+02
 7.8981333e+00   1.1306269e+02
 7.9036000e+00   9.7219974e+01
 7.9090667e+00   8.4939299e+01
 7.9145333e+00   7.5395287e+01
 7.9200000e+00   6.4450901e+01
 7.9254667e+00   5.8667665e+01
 7.9309333e+00   5.5040704e+01
 7.9364000e+00   5.3326674e+01
 7.9418667e+00   5.0611882e+01
 7.9473333e+00   5.0015281e+01
 7.9528000e+00   4.8750799e+01
 7.9582667e+00   4.8378280e+01
 7.9637333e+00   4.7933454e+01
 7.9692000e+00   4.7970855e+01
 7.9746667e+00   4.7444128e+01
 7.9801333e+00   4.7801082e+01
 7.9856000e+00   4.7293421e+01
 7.9910667e+00   4.7553774e+01
 7.9965333e+00   4.7639242e+01
 8.0020000e+00   4.7606853e+01
 8.0074667e+00   4.7537048e+01
 8.0129333e+00   4.7570767e+01
 8.0184000e+00   4.7774982e+01
 8.0238667e+00   4.7671336e+01
 8.0293333e+00   4.8079078e+01
 8.0348000e+00   4.7731950e+01
 8.0402667e+00   4.8282123e+01
 8.0457333e+00   4.7929128e+01
 8.0512000e+00   4.8604789e+01
 8.0566667e+00   4.8286388e+01
 8.0621333e+00   4.8800988e+01
 8.0676000e+00   4.8750682e+01
 8.0730667e+00   4.9243957e+01
 8.0785333e+00   4.9593916e+01
 8.0840000e+00   5.0037429e+01
 8.0894667e+00   5.1225255e+01
 8.0949333e+00   5.1711768e+01
 8.1004000e+00   5.6078919e+01
 8.1058667e+00   5.8215161e+01
 8.1113333e+00   7.1133158e+01
 8.1168000e+00   7.3033819e+01
 8.1222667e+00   8.9404183e+01
 8.1277333e+00   9.1590507e+01
 8.1332000e+00   1.2185567e+02
 8.1386667e+00   1.2963058e+02
 8.1441333e+00   1.6450745e+02
 8.1496000e+00   1.4069402e+02
 8.1550667e+00   1.5648949e+02
 8.1605333e+00   1.2627431e+02
 8.1660000e+00   1.4689804e+02
 8.1714667e+00   1.2243555e+02
 8.1769333e+00   1.5775925e+02
 8.1824000e+00   1.2498825e+02
 8.1878667e+00   1.8607236e+02
 8.1933333e+00   1.4580529e+02
 8.1988000e+00   1.3755686e+02
 8.2042667e+00   1.4046505e+02
 8.2097333e+00   1.0238402e+02
 8.2152000e+00   1.2653842e+02
 8.2206667e+00   7.4560298e+01
 8.2261333e+00   8.9197551e+01
 8.2316000e+00   6.4439809e+01
 8.2370667e+00   6.7093223e+01
 8.2425333e+00   6.3525893e+01
 8.2480000e+00   6.3857786e+01
 8.2534667e+00   6.2322913e+01
 8.2589333e+00   6.1933989e+01
 8.2644000e+00   5.9501040e+01
 8.2698667e+00   5.7459186e+01
 8.2753333e+00   5.4522860e+01
 8.2808000e+00   5.3312078e+01
 8.2862667e+00   5.1642654e+01
 8.2917333e+00   5.1364459e+01
 8.2972000e+00   5.0632790e+01
 8.3026667e+00   5.0501371e+01
 8.3081333e+00   5.0105424e+01
 8.3136000e+00   5.0229200e+01
 8.3190667e+00   4.9840848e+01
 8.3245333e+00   5.0091644e+01
 8.3300000e+00   4.9931334e+01
 8.3354667e+00   5.0055497e+01
 8.3409333e+00   5.0176895e+01
 8.3464000e+00   5.0387146e+01
 8.3518667e+00   5.0640500e+01
 8.3573333e+00   5.0854503e+01
 8.3628000e+00   5.2037540e+01
 8.3682667e+00   5.2942044e+01
 8.3737333e+00   5.6314645e+01
 8.3792000e+00   6.0520983e+01
 8.3846667e+00   6.8928498e+01
 8.3901333e+00   8.0882235e+01
 8.3956000e+00   1.0474241e+02
 8.4010667e+00   1.1511502e+02
 8.4065333e+00   1.3710579e+02
 8.4120000e+00   1.4091931e+02
 8.4174667e+00   1.4893622e+02
 8.4229333e+00   1.5182064e+02
 8.4284000e+00   1.5008518e+02
 8.4338667e+00   1.4456472e+02
 8.4393333e+00   1.3443514e+02
 8.4448000e+00   1.1961481e+02
 8.4502667e+00   1.0245735e+02
 8.4557333e+00   8.7162444e+01
 8.4612000e+00   7.2915399e+01
 8.4666667e+00   6.6283904e+01
 8.4721333e+00   5.8013824e+01
 8.4776000e+00   5.5691306e+01
 8.4830667e+00   5.3108950e+01
 8.4885333e+00   5.3243557e+01
 8.4940000e+00   5.3082940e+01
 8.4994667e+00   5.6007611e+01
 8.5049333e+00   5.8820203e+01
 8.5104000e+00   6.5730081e+01
 8.5158667e+00   7.2730785e+01
 8.5213333e+00   8.8137666e+01
 8.5268000e+00   9.1800449e+01
 8.5322667e+00   1.0428777e+02
 8.5377333e+00   1.0821416e+02
 8.5432000e+00   1.1470864e+02
 8.5486667e+00   1.1436143e+02
 8.5541333e+00   1.1076931e+02
 8.5596000e+00   1.0059501e+02
 8.5650667e+00   8.9504185e+01
 8.5705333e+00   7.7780534e+01
 8.5760000e+00   6.7859892e+01
 8.5814667e+00   6.1148116e+01
 8.5869333e+00   5.6100274e+01
 8.5924000e+00   5.3464403e+01
 8.5978667e+00   5.1101814e+01
 8.6033333e+00   4.9811065e+01
 8.6088000e+00   4.8608477e+01
 8.6142667e+00   4.8307153e+01
 8.6197333e+00   4.7824640e+01
 8.6252000e+00   4.7780796e+01
 8.6306667e+00   4.7292668e+01
 8.6361333e+00   4.7164690e+01
 8.6416000e+00   4.7087375e+01
 8.6470667e+00   4.6868044e+01
 8.6525333e+00   4.6621468e+01
 8.6580000e+00   4.6517509e+01
 8.6634667e+00   4.6387091e+01
 8.6689333e+00   4.6244576e+01
 8.6744000e+00   4.6058294e+01
 8.6798667e+00   4.5831216e+01
 8.6853333e+00   4.5942320e+01
 8.6908000e+00   4.5668477e+01
 8.6962667e+00   4.5779641e+01
 8.7017333e+00   4.5377728e+01
 8.7072000e+00   4.5734663e+01
 8.7126667e+00   4.5168915e+01
 8.7181333e+00   4.5569363e+01
 8.7236000e+00   4.5038257e+01
 8.7290667e+00   4.5349597e+01
 8.7345333e+00   4.4815764e+01
 8.7400000e+00   4.5074517e+01
 8.7454667e+00   4.4816186e+01
 8.7509333e+00   4.4928482e+01
 8.7564000e+00   4.4737342e+01
 8.7618667e+00   4.4781316e+01
 8.7673333e+00   4.4452206e+01
 8.7728000e+00   4.4546251e+01
 8.7782667e+00   4.4231402e+01
 8.7837333e+00   4.4442406e+01
 8.7892000e+00   4.4285032e+01
 8.7946667e+00   4.4306572e+01
 8.8001333e+00   4.4276143e+01
 8.8056000e+00   4.4116525e+01
 8.8110667e+00   4.3975935e+01
 8.8165333e+00   4.3867487e+01
 8.8220000e+00   4.4039201e+01
 8.8274667e+00   4.3881337e+01
 8.8329333e+00   4.3910985e+01
 8.8384000e+00   4.3660883e+01
 8.8438667e+00   4.3778949e+01
 8.8493333e+00   4.3496183e+01
 8.8548000e+00   4.3723311e+01
 8.8602667e+00   4.3509098e+01
 8.8657333e+00   4.3576562e+01
 8.8712000e+00   4.3566857e+01
 8.8766667e+00   4.3530477e+01
 8.8821333e+00   4.3751508e+01
 8.8876000e+00   4.4044156e+01
 8.8930667e+00   4.4792821e+01
 8.8985333e+00   4.5727350e+01
 8.9040000e+00   4.7508794e+01
 8.9094667e+00   4.9590236e+01
 8.9149333e+00   5.2348812e+01
 8.9204000e+00   5.4230479e+01
 8.9258667e+00   5.5240738e+01
 8.9313333e+00   5.3195431e+01
 8.9368000e+00   5.3433325e+01
 8.9422667e+00   5.2203986e+01
 8.9477333e+00   5.2942735e+01
 8.9532000e+00   5.3964728e+01
 8.9586667e+00   5.1909635e+01
 8.9641333e+00   4.8384476e+01
 8.9696000e+00   4.5580357e+01
 8.9750667e+00   4.4340283e+01
 8.9805333e+00   4.3460999e+01
 8.9860000e+00   4.2866580e+01
 8.9914667e+00   4.2659756e+01
 8.9969333e+00   4.2223763e+01
 9.0024000e+00   4.2104521e+01
 9.0078667e+00   4.1826602e+01
 9.0133333e+00   4.1865268e+01
 9.0188000e+00   4.1778937e+01
 9.0242667e+00   4.1812276e+01
 9.0297333e+00   4.1519508e+01
 9.0352000e+00   4.1623160e+01
 9.0406667e+00   4.1351522e+01
 9.0461333e+00   4.1699305e+01
 9.0516000e+00   4.1321306e+01
 9.0570667e+00   4.1400255e+01
 9.0625333e+00   4.1444608e+01
 9.0680000e+00   4.1517340e+01
 9.0734667e+00   4.1977905e+01
 9.0789333e+00   4.2066721e+01
 9.0844000e+00   4.2915303e+01
 9.0898667e+00   4.3720065e+01
 9.0953333e+00   4.4609019e+01
 9.1008000e+00   4.5638680e+01
 9.1062667e+00   4.5947433e+01
 9.1117333e+00   4.5932361e+01
 9.1172000e+00   4.5468398e+01
 9.1226667e+00   4.5622938e+01
 9.1281333e+00   4.5407976e+01
 9.1336000e+00   4.5037167e+01
 9.1390667e+00   4.4517378e+01
 9.1445333e+00   4.3287613e+01
 9.1500000e+00   4.2304940e+01
 9.1554667e+00   4.1481585e+01
 9.1609333e+00   4.0958661e+01
 9.1664000e+00   4.0805915e+01
 9.1718667e+00   4.0593571e+01
 9.1773333e+00   4.0328369e+01
 9.1828000e+00   4.0115787e+01
 9.1882667e+00   4.0128110e+01
 9.1937333e+00   3.9856935e+01
 9.1992000e+00   3.9993274e+01
 9.2046667e+00   3.9792705e+01
 9.2101333e+00   3.9934787e+01
 9.2156000e+00   3.9624298e+01
 9.2210667e+00   3.9828792e+01
 9.2265333e+00   3.9470337e+01
 9.2320000e+00   3.9864614e+01
 9.2374667e+00   3.9394619e+01
 9.2429333e+00   3.9855711e+01
 9.2484000e+00   3.9354896e+01
 9.2538667e+00   3.9695796e+01
 9.2593333e+00   3.9279427e+01
 9.2648000e+00   3.9656756e+01
 9.2702667e+00   3.9274927e+01
 9.2757333e+00   3.9706202e+01
 9.2812000e+00   3.9304038e+01
 9.2866667e+00   3.9684839e+01
 9.2921333e+00   3.9578803e+01
 9.2976000e+00   3.9539298e+01
 9.3030667e+00   4.0234970e+01
 9.3085333e+00   3.9762377e+01
 9.3140000e+00   3.9501401e+01
 9.3194667e+00   3.9672058e+01
 9.3249333e+00   3.9887946e+01
 9.3304000e+00   4.0104106e+01
 9.3358667e+00   4.0783444e+01
 9.3413333e+00   4.1663393e+01
 9.3468000e+00   4.3501065e+01
 9.3522667e+00   4.5313058e+01
 9.3577333e+00   4.7393276e+01
 9.3632000e+00   4.9995062e+01
 9.3686667e+00   5.1235048e+01
 9.3741333e+00   5.1330504e+01
 9.3796000e+00   5.1110734e+01
 9.3850667e+00   5.0529221e+01
 9.3905333e+00   4.9776059e+01
 9.3960000e+00   4.9919457e+01
 9.4014667e+00   4.8526589e+01
 9.4069333e+00   4.7218938e+01
 9.4124000e+00   4.4452854e+01
 9.4178667e+00   4.3332074e+01
 9.4233333e+00   4.1535480e+01
 9.4288000e+00   4.0919820e+01
 9.4342667e+00   3.9770260e+01
 9.4397333e+00   3.9866939e+01
 9.4452000e+00   3.9278030e+01
 9.4506667e+00   3.9493422e+01
 9.4561333e+00   3.9149498e+01
 9.4616000e+00   3.9420316e+01
 9.4670667e+00   3.9274241e+01
 9.4725333e+00   3.9483102e+01
 9.4780000e+00   3.9377532e+01
 9.4834667e+00   3.9499889e+01
 9.4889333e+00   3.9500967e+01
 9.4944000e+00   3.9863112e+01
 9.4998667e+00   3.9675679e+01
 9.5053333e+00   4.0385021e+01
 9.5108000e+00   4.0418590e+01
 9.5162667e+00   4.1440608e+01
 9.5217333e+00   4.2785278e+01
 9.5272000e+00   4.6921025e+01
 9.5326667e+00   4.6398261e+01
 9.5381333e+00   5.2120689e+01
 9.5436000e+00   6.2303562e+01
 9.5490667e+00   7.5756123e+01
 9.5545333e+00   8.5470866e+01
 9.5600000e+00   8.4479389e+01
 9.5654667e+00   1.0214885e+02
 9.5709333e+00   9.9540683e+01
 9.5764000e+00   9.7458164e+01
 9.5818667e+00   1.0560910e+02
 9.5873333e+00   9.0393540e+01
 9.5928000e+00   9.7186543e+01
 9.5982667e+00   8.7811635e+01
 9.6037333e+00   8.3073783e+01
 9.6092000e+00   7.5618917e+01
 9.6146667e+00   8.7037059e+01
 9.6201333e+00   8.0767171e+01
 9.6256000e+00   7.9460758e+01
 9.6310667e+00   7.0217941e+01
 9.6365333e+00   6.0331861e+01
 9.6420000e+00   4.9102993e+01
 9.6474667e+00   4.4186187e+01
 9.6529333e+00   4.0981349e+01
 9.6584000e+00   4.0141496e+01
 9.6638667e+00   3.9389845e+01
 9.6693333e+00   3.8999511e+01
 9.6748000e+00   3.8711469e+01
 9.6802667e+00   3.8647593e+01
 9.6857333e+00   3.8450670e+01
 9.6912000e+00   3.8462092e+01
 9.6966667e+00   3.8087417e+01
 9.7021333e+00   3.8359481e+01
 9.7076000e+00   3.7796401e+01
 9.7130667e+00   3.8160547e+01
 9.7185333e+00   3.7572763e+01
 9.7240000e+00   3.8039851e+01
 9.7294667e+00   3.7456242e+01
 9.7349333e+00   3.7805075e+01
 9.7404000e+00   3.7338679e+01
 9.7458667e+00   3.7609920e+01
 9.7513333e+00   3.7116259e+01
 9.7568000e+00   3.7319354e+01
 9.7622667e+00   3.7161176e+01
 9.7677333e+00   3.7215061e+01
 9.7732000e+00   3.7057039e+01
 9.7786667e+00   3.7101914e+01
 9.7841333e+00   3.7278477e+01
 9.7896000e+00   3.7125006e+01
 9.7950667e+00   3.7450385e+01
 9.8005333e+00   3.7700572e+01
 9.8060000e+00   3.8346757e+01
 9.8114667e+00   3.9424830e+01
 9.8169333e+00   4.0953117e+01
 9.8224000e+00   4.2730642e+01
 9.8278667e+00   4.4450401e+01
 9.8333333e+00   4.6933966e+01
 9.8388000e+00   4.8708796e+01
 9.8442667e+00   4.9569027e+01
 9.8497333e+00   4.9560008e+01
 9.8552000e+00   4.8285804e+01
 9.8606667e+00   4.6958692e+01
 9.8661333e+00   4.4946786e+01
 9.8716000e+00   4.3013542e+01
 9.8770667e+00   4.1611256e+01
 9.8825333e+00   3.9816284e+01
 9.8880000e+00   3.9233285e+01
 9.8934667e+00   3.8303226e+01
 9.8989333e+00   3.8270891e+01
 9.9044000e+00   3.7798164e+01
 9.9098667e+00   3.8070540e+01
 9.9153333e+00   3.7973478e+01
 9.9208000e+00   3.8207430e+01
 9.9262667e+00   3.8184002e+01
 9.9317333e+00   3.8407663e+01
 9.9372000e+00   3.8879633e+01
 9.9426667e+00   3.9389163e+01
 9.9481333e+00   4.0266393e+01
 9.9536000e+00   4.7138410e+01
 9.9590667e+00   4.7002708e+01
 9.9645333e+00   4.9562161e+01
 9.9700000e+00   5.8047094e+01
 9.9754667e+00   5.6800814e+01
 9.9809333e+00   7.6456653e+01
 9.9864000e+00   8.1482219e+01
 9.9918667e+00   8.8298472e+01
 9.9973333e+00   1.0082876e+02
 1.0002800e+01   1.0085526e+02
 1.0008267e+01   1.1937780e+02
 1.0013733e+01   9.1313402e+01
 1.0019200e+01   1.1988056e+02
 1.0024667e+01   9.9859469e+01
 1.0030133e+01   9.3195717e+01
 1.0035600e+01   8.0493691e+01
 1.0041067e+01   8.4092716e+01
 1.0046533e+01   6.8179185e+01
 1.0052000e+01   6.8451064e+01
 1.0057467e+01   6.1747269e+01
 1.0062933e+01   5.2423969e+01
 1.0068400e+01   6.2495660e+01
 1.0073867e+01   4.5110819e+01
 1.0079333e+01   5.5625341e+01
 1.0084800e+01   4.1263609e+01
 1.0090267e+01   4.2914148e+01
 1.0095733e+01   3.9061577e+01
 1.0101200e+01   3.9746127e+01
 1.0106667e+01   3.8050526e+01
 1.0112133e+01   3.8270723e+01
 1.0117600e+01   3.7281659e+01
 1.0123067e+01   3.7828413e+01
 1.0128533e+01   3.7463539e+01
 1.0134000e+01   3.7934056e+01
 1.0139467e+01   3.7957767e+01
 1.0144933e+01   3.7571820e+01
 1.0150400e+01   3.7795507e+01
 1.0155867e+01   3.7447089e+01
 1.0161333e+01   3.8090473e+01
 1.0166800e+01   3.8528676e+01
 1.0172267e+01   3.9396592e+01
 1.0177733e+01   4.0402314e+01
 1.0183200e+01   4.0900360e+01
 1.0188667e+01   4.1919691e+01
 1.0194133e+01   4.2317747e+01
 1.0199600e+01   4.2353667e+01
 1.0205067e+01   4.2066633e+01
 1.0210533e+01   4.1927653e+01
 1.0216000e+01   4.0539829e+01
 1.0221467e+01   4.0345974e+01
 1.0226933e+01   3.8568366e+01
 1.0232400e+01   3.8105416e+01
 1.0237867e+01   3.6840337e+01
 1.0243333e+01   3.6516781e+01
 1.0248800e+01   3.5439035e+01
 1.0254267e+01   3.5424363e+01
 1.0259733e+01   3.4862817e+01
 1.0265200e+01   3.4720456e+01
 1.0270667e+01   3.4485991e+01
 1.0276133e+01   3.4612801e+01
 1.0281600e+01   3.4313424e+01
 1.0287067e+01   3.4334720e+01
 1.0292533e+01   3.4241635e+01
 1.0298000e+01   3.4219299e+01
 1.0303467e+01   3.4125449e+01
 1.0308933e+01   3.4172868e+01
 1.0314400e+01   3.3950019e+01
 1.0319867e+01   3.4024685e+01
 1.0325333e+01   3.3936740e+01
 1.0330800e+01   3.4015471e+01
 1.0336267e+01   3.3914807e+01
 1.0341733e+01   3.3976622e+01
 1.0347200e+01   3.3914233e+01
 1.0352667e+01   3.3885441e+01
 1.0358133e+01   3.3791455e+01
 1.0363600e+01   3.3708945e+01
 1.0369067e+01   3.3602741e+01
 1.0374533e+01   3.3704037e+01
 1.0380000e+01   3.3542992e+01
 1.0385467e+01   3.3801315e+01
 1.0390933e+01   3.3642143e+01
 1.0396400e+01   3.3690025e+01
 1.0401867e+01   3.3580964e+01
 1.0407333e+01   3.3715413e+01
 1.0412800e+01   3.3592942e+01
 1.0418267e+01   3.3711773e+01
 1.0423733e+01   3.4063691e+01
 1.0429200e+01   3.3568749e+01
 1.0434667e+01   3.3873336e+01
 1.0440133e+01   3.3591885e+01
 1.0445600e+01   3.3483319e+01
 1.0451067e+01   3.3548553e+01
 1.0456533e+01   3.3390803e+01
 1.0462000e+01   3.3495095e+01
 1.0467467e+01   3.3499158e+01
 1.0472933e+01   3.3388126e+01
 1.0478400e+01   3.3440714e+01
 1.0483867e+01   3.3315884e+01
 1.0489333e+01   3.3511077e+01
 1.0494800e+01   3.3464123e+01
 1.0500267e+01   3.3480959e+01
 1.0505733e+01   3.3677149e+01
 1.0511200e+01   3.3440947e+01
 1.0516667e+01   3.3650773e+01
 1.0522133e+01   3.3525896e+01
 1.0527600e+01   3.3566694e+01
 1.0533067e+01   3.3629028e+01
 1.0538533e+01   3.3704306e+01
 1.0544000e+01   3.3663800e+01
 1.0549467e+01   3.3814886e+01
 1.0554933e+01   3.3763523e+01
 1.0560400e+01   3.3718571e+01
 1.0565867e+01   3.3832393e+01
 1.0571333e+01   3.4095433e+01
 1.0576800e+01   3.4198274e+01
 1.0582267e+01   3.4764738e+01
 1.0587733e+01   3.5466346e+01
 1.0593200e+01   3.6867243e+01
 1.0598667e+01   3.8177706e+01
 1.0604133e+01   4.1103037e+01
 1.0609600e+01   4.3102168e+01
 1.0615067e+01   4.7377457e+01
 1.0620533e+01   5.0576567e+01
 1.0626000e+01   5.3841391e+01
 1.0631467e+01   5.5407767e+01
 1.0636933e+01   5.6693392e+01
 1.0642400e+01   5.3082891e+01
 1.0647867e+01   5.1313470e+01
 1.0653333e+01   4.6880548e+01
 1.0658800e+01   4.3296219e+01
 1.0664267e+01   4.0052867e+01
 1.0669733e+01   3.7817281e+01
 1.0675200e+01   3.6331248e+01
 1.0680667e+01   3.5397532e+01
 1.0686133e+01   3.4944769e+01
 1.0691600e+01   3.4322036e+01
 1.0697067e+01   3.4276952e+01
 1.0702533e+01   3.3950889e+01
 1.0708000e+01   3.3865064e+01
 1.0713467e+01   3.3673077e+01
 1.0718933e+01   3.4083298e+01
 1.0724400e+01   3.3802372e+01
 1.0729867e+01   3.3758762e+01
 1.0735333e+01   3.3789529e+01
 1.0740800e+01   3.3687182e+01
 1.0746267e+01   3.3652200e+01
 1.0751733e+01   3.3619851e+01
 1.0757200e+01   3.3661126e+01
 1.0762667e+01   3.3721304e+01
 1.0768133e+01   3.3585296e+01
 1.0773600e+01   3.3539205e+01
 1.0779067e+01   3.3448308e+01
 1.0784533e+01   3.3560387e+01
 1.0790000e+01   3.3326409e+01
 1.0795467e+01   3.3577004e+01
 1.0800933e+01   3.3582611e+01
 1.0806400e+01   3.3649524e+01
 1.0811867e+01   3.3414700e+01
 1.0817333e+01   3.3578182e+01
 1.0822800e+01   3.3574961e+01
 1.0828267e+01   3.3741775e+01
 1.0833733e+01   3.3633834e+01
 1.0839200e+01   3.3628173e+01
 1.0844667e+01   3.3559247e+01
 1.0850133e+01   3.3814182e+01
 1.0855600e+01   3.3666914e+01
 1.0861067e+01   3.3829846e+01
 1.0866533e+01   3.3890938e+01
 1.0872000e+01   3.3974563e+01
 1.0877467e+01   3.4483885e+01
 1.0882933e+01   3.4846648e+01
 1.0888400e+01   3.5367574e+01
 1.0893867e+01   3.6273804e+01
 1.0899333e+01   3.7007162e+01
 1.0904800e+01   3.8134476e+01
 1.0910267e+01   3.8852495e+01
 1.0915733e+01   3.8927566e+01
 1.0921200e+01   3.9033615e+01
 1.0926667e+01   3.8489851e+01
 1.0932133e+01   3.8153375e+01
 1.0937600e+01   3.7590726e+01
 1.0943067e+01   3.6721839e+01
 1.0948533e+01   3.6109671e+01
 1.0954000e+01   3.5373769e+01
 1.0959467e+01   3.5083851e+01
 1.0964933e+01   3.4657053e+01
 1.0970400e+01   3.4196873e+01
 1.0975867e+01   3.4380305e+01
 1.0981333e+01   3.4001151e+01
 1.0986800e+01   3.4304156e+01
 1.0992267e+01   3.4049406e+01
 1.0997733e+01   3.4203091e+01
 1.1003200e+01   3.4044400e+01
 1.1008667e+01   3.4407498e+01
 1.1014133e+01   3.4034258e+01
 1.1019600e+01   3.4435894e+01
 1.1025067e+01   3.4129132e+01
 1.1030533e+01   3.4440589e+01
 1.1036000e+01   3.4294487e+01
 1.1041467e+01   3.4624830e+01
 1.1046933e+01   3.4292559e+01
 1.1052400e+01   3.4624821e+01
 1.1057867e+01   3.4490152e+01
 1.1063333e+01   3.4652442e+01
 1.1068800e+01   3.4706216e+01
 1.1074267e+01   3.4926610e+01
 1.1079733e+01   3.4842225e+01
 1.1085200e+01   3.5274016e+01
 1.1090667e+01   3.5475085e+01
 1.1096133e+01   3.6236730e+01
 1.1101600e+01   3.6887650e+01
 1.1107067e+01   3.8844449e+01
 1.1112533e+01   4.1195837e+01
 1.1118000e+01   4.6012931e+01
 1.1123467e+01   4.9241754e+01
 1.1128933e+01   5.5478386e+01
 1.1134400e+01   6.0192560e+01
 1.1139867e+01   6.2854678e+01
 1.1145333e+01   6.5209892e+01
 1.1150800e+01   6.5207421e+01
 1.1156267e+01   6.3364481e+01
 1.1161733e+01   6.0255765e+01
 1.1167200e+01   5.5297969e+01
 1.1172667e+01   5.0528998e+01
 1.1178133e+01   4.5653870e+01
 1.1183600e+01   4.2282236e+01
 1.1189067e+01   3.9695172e+01
 1.1194533e+01   3.8247284e+01
