PWDR ff_004432_sum_norm_dc_0.tif Azm= 352.fxye Bank 1
2-Theta Angle (Degrees)
Intensity
       1500
 3.0000000e+00   4.5815671e+01
 3.0054667e+00   4.5531546e+01
 3.0109333e+00   4.5441718e+01
 3.0164000e+00   4.5143941e+01
 3.0218667e+00   4.4924549e+01
 3.0273333e+00   4.4890228e+01
 3.0328000e+00   4.4928167e+01
 3.0382667e+00   4.4577569e+01
 3.0437333e+00   4.4367871e+01
 3.0492000e+00   4.4204303e+01
 3.0546667e+00   4.3907087e+01
 3.0601333e+00   4.3633788e+01
 3.0656000e+00   4.3523973e+01
 3.0710667e+00   4.2982638e+01
 3.0765333e+00   4.2869838e+01
 3.0820000e+00   4.2757176e+01
 3.0874667e+00   4.2583220e+01
 3.0929333e+00   4.2411668e+01
 3.0984000e+00   4.2261313e+01
 3.1038667e+00   4.2018190e+01
 3.1093333e+00   4.1862788e+01
 3.1148000e+00   4.1598507e+01
 3.1202667e+00   4.1523490e+01
 3.1257333e+00   4.1613031e+01
 3.1312000e+00   4.1240369e+01
 3.1366667e+00   4.1373254e+01
 3.1421333e+00   4.0985882e+01
 3.1476000e+00   4.0790428e+01
 3.1530667e+00   4.0525101e+01
 3.1585333e+00   4.0333866e+01
 3.1640000e+00   4.0385161e+01
 3.1694667e+00   4.0328965e+01
 3.1749333e+00   4.0331267e+01
 3.1804000e+00   4.0144258e+01
 3.1858667e+00   4.0061011e+01
 3.1913333e+00   3.9886453e+01
 3.1968000e+00   3.9542891e+01
 3.2022667e+00   3.9667294e+01
 3.2077333e+00   3.9353326e+01
 3.2132000e+00   3.9349077e+01
 3.2186667e+00   3.9286112e+01
 3.2241333e+00   3.9203647e+01
 3.2296000e+00   3.9002157e+01
 3.2350667e+00   3.8917538e+01
 3.2405333e+00   3.8862678e+01
 3.2460000e+00   3.8394145e+01
 3.2514667e+00   3.8446780e+01
 3.2569333e+00   3.8501254e+01
 3.2624000e+00   3.8291136e+01
 3.2678667e+00   3.8346797e+01
 3.2733333e+00   3.8195690e+01
 3.2788000e+00   3.7952819e+01
 3.2842667e+00   3.7947107e+01
 3.2897333e+00   3.7806663e+01
 3.2952000e+00   3.7840013e+01
 3.3006667e+00   3.7665984e+01
 3.3061333e+00   3.7640515e+01
 3.3116000e+00   3.7431178e+01
 3.3170667e+00   3.7463290e+01
 3.3225333e+00   3.7273974e+01
 3.3280000e+00   3.7262494e+01
 3.3334667e+00   3.7172279e+01
 3.3389333e+00   3.7241537e+01
 3.3444000e+00   3.7177968e+01
 3.3498667e+00   3.7077584e+01
 3.3553333e+00   3.7089845e+01
 3.3608000e+00   3.7163459e+01
 3.3662667e+00   3.6876802e+01
 3.3717333e+00   3.6827218e+01
 3.3772000e+00   3.6748744e+01
 3.3826667e+00   3.6593356e+01
 3.3881333e+00   3.6603418e+01
 3.3936000e+00   3.6611561e+01
 3.3990667e+00   3.6849233e+01
 3.4045333e+00   3.6413673e+01
 3.4100000e+00   3.6763802e+01
 3.4154667e+00   3.6475002e+01
 3.4209333e+00   3.6381350e+01
 3.4264000e+00   3.6353388e+01
 3.4318667e+00   3.6218694e+01
 3.4373333e+00   3.6300994e+01
 3.4428000e+00   3.6306965e+01
 3.4482667e+00   3.6258868e+01
 3.4537333e+00   3.6267615e+01
 3.4592000e+00   3.6064438e+01
 3.4646667e+00   3.5983953e+01
 3.4701333e+00   3.5949683e+01
 3.4756000e+00   3.6040182e+01
 3.4810667e+00   3.6110319e+01
 3.4865333e+00   3.6032545e+01
 3.4920000e+00   3.6306847e+01
 3.4974667e+00   3.6120728e+01
 3.5029333e+00   3.6126512e+01
 3.5084000e+00   3.6108553e+01
 3.5138667e+00   3.5965357e+01
 3.5193333e+00   3.5955670e+01
 3.5248000e+00   3.5881533e+01
 3.5302667e+00   3.6034420e+01
 3.5357333e+00   3.5981712e+01
 3.5412000e+00   3.6093936e+01
 3.5466667e+00   3.5988753e+01
 3.5521333e+00   3.6236209e+01
 3.5576000e+00   3.6092747e+01
 3.5630667e+00   3.6111346e+01
 3.5685333e+00   3.6159278e+01
 3.5740000e+00   3.6108763e+01
 3.5794667e+00   3.6070087e+01
 3.5849333e+00   3.6160881e+01
 3.5904000e+00   3.5952093e+01
 3.5958667e+00   3.5953273e+01
 3.6013333e+00   3.6003596e+01
 3.6068000e+00   3.5756703e+01
 3.6122667e+00   3.5965962e+01
 3.6177333e+00   3.5728619e+01
 3.6232000e+00   3.5824588e+01
 3.6286667e+00   3.5783467e+01
 3.6341333e+00   3.5962378e+01
 3.6396000e+00   3.5737172e+01
 3.6450667e+00   3.5860495e+01
 3.6505333e+00   3.5880319e+01
 3.6560000e+00   3.5975392e+01
 3.6614667e+00   3.5849126e+01
 3.6669333e+00   3.6087929e+01
 3.6724000e+00   3.6029366e+01
 3.6778667e+00   3.6057253e+01
 3.6833333e+00   3.6055489e+01
 3.6888000e+00   3.6001868e+01
 3.6942667e+00   3.6094110e+01
 3.6997333e+00   3.6059143e+01
 3.7052000e+00   3.6034482e+01
 3.7106667e+00   3.6178910e+01
 3.7161333e+00   3.6214563e+01
 3.7216000e+00   3.6224359e+01
 3.7270667e+00   3.6150091e+01
 3.7325333e+00   3.6277112e+01
 3.7380000e+00   3.6258878e+01
 3.7434667e+00   3.6207589e+01
 3.7489333e+00   3.6307355e+01
 3.7544000e+00   3.6351605e+01
 3.7598667e+00   3.6562720e+01
 3.7653333e+00   3.6327448e+01
 3.7708000e+00   3.6489687e+01
 3.7762667e+00   3.6426387e+01
 3.7817333e+00   3.6565257e+01
 3.7872000e+00   3.6314562e+01
 3.7926667e+00   3.6573428e+01
 3.7981333e+00   3.6545736e+01
 3.8036000e+00   3.6652645e+01
 3.8090667e+00   3.6741140e+01
 3.8145333e+00   3.6863158e+01
 3.8200000e+00   3.6939344e+01
 3.8254667e+00   3.7141537e+01
 3.8309333e+00   3.7094511e+01
 3.8364000e+00   3.7185439e+01
 3.8418667e+00   3.7137704e+01
 3.8473333e+00   3.7267959e+01
 3.8528000e+00   3.7276379e+01
 3.8582667e+00   3.7300695e+01
 3.8637333e+00   3.7548726e+01
 3.8692000e+00   3.7561071e+01
 3.8746667e+00   3.7777172e+01
 3.8801333e+00   3.7716378e+01
 3.8856000e+00   3.8011188e+01
 3.8910667e+00   3.7911931e+01
 3.8965333e+00   3.8216018e+01
 3.9020000e+00   3.8302290e+01
 3.9074667e+00   3.8554885e+01
 3.9129333e+00   3.8661580e+01
 3.9184000e+00   3.8813426e+01
 3.9238667e+00   3.8974196e+01
 3.9293333e+00   3.9187481e+01
 3.9348000e+00   3.9075322e+01
 3.9402667e+00   3.9105993e+01
 3.9457333e+00   3.9012321e+01
 3.9512000e+00   3.9024201e+01
 3.9566667e+00   3.9092192e+01
 3.9621333e+00   3.9244208e+01
 3.9676000e+00   3.9441777e+01
 3.9730667e+00   3.9576537e+01
 3.9785333e+00   3.9625445e+01
 3.9840000e+00   3.9600014e+01
 3.9894667e+00   3.9704963e+01
 3.9949333e+00   3.9842240e+01
 4.0004000e+00   3.9846599e+01
 4.0058667e+00   3.9977194e+01
 4.0113333e+00   4.0237875e+01
 4.0168000e+00   4.0607411e+01
 4.0222667e+00   4.0795947e+01
 4.0277333e+00   4.1107599e+01
 4.0332000e+00   4.1440755e+01
 4.0386667e+00   4.1857171e+01
 4.0441333e+00   4.2491062e+01
 4.0496000e+00   4.3251186e+01
 4.0550667e+00   4.5097734e+01
 4.0605333e+00   4.7706805e+01
 4.0660000e+00   5.3829396e+01
 4.0714667e+00   6.2071275e+01
 4.0769333e+00   7.6625211e+01
 4.0824000e+00   9.1232952e+01
 4.0878667e+00   1.1647710e+02
 4.0933333e+00   1.4296126e+02
 4.0988000e+00   1.7947664e+02
 4.1042667e+00   2.0335030e+02
 4.1097333e+00   2.2597654e+02
 4.1152000e+00   2.3611897e+02
 4.1206667e+00   2.2921681e+02
 4.1261333e+00   2.1445113e+02
 4.1316000e+00   1.8956721e+02
 4.1370667e+00   1.6103937e+02
 4.1425333e+00   1.2976772e+02
 4.1480000e+00   1.0355656e+02
 4.1534667e+00   8.5436084e+01
 4.1589333e+00   6.9959215e+01
 4.1644000e+00   5.9519864e+01
 4.1698667e+00   5.3470264e+01
 4.1753333e+00   4.9424028e+01
 4.1808000e+00   4.7567003e+01
 4.1862667e+00   4.6623041e+01
 4.1917333e+00   4.6093199e+01
 4.1972000e+00   4.5797299e+01
 4.2026667e+00   4.5640387e+01
 4.2081333e+00   4.5340089e+01
 4.2136000e+00   4.5442435e+01
 4.2190667e+00   4.5355706e+01
 4.2245333e+00   4.5171810e+01
 4.2300000e+00   4.5026588e+01
 4.2354667e+00   4.5197876e+01
 4.2409333e+00   4.5039894e+01
 4.2464000e+00   4.5167507e+01
 4.2518667e+00   4.5141676e+01
 4.2573333e+00   4.5351857e+01
 4.2628000e+00   4.5153872e+01
 4.2682667e+00   4.5488019e+01
 4.2737333e+00   4.5468908e+01
 4.2792000e+00   4.5578830e+01
 4.2846667e+00   4.5638479e+01
 4.2901333e+00   4.5663181e+01
 4.2956000e+00   4.5649007e+01
 4.3010667e+00   4.5920945e+01
 4.3065333e+00   4.5804542e+01
 4.3120000e+00   4.6417658e+01
 4.3174667e+00   4.6144055e+01
 4.3229333e+00   4.6620865e+01
 4.3284000e+00   4.6488741e+01
 4.3338667e+00   4.6804772e+01
 4.3393333e+00   4.6884720e+01
 4.3448000e+00   4.6957578e+01
 4.3502667e+00   4.7484896e+01
 4.3557333e+00   4.7363073e+01
 4.3612000e+00   4.7914087e+01
 4.3666667e+00   4.8073263e+01
 4.3721333e+00   4.8626496e+01
 4.3776000e+00   4.8977555e+01
 4.3830667e+00   4.9434536e+01
 4.3885333e+00   4.9778357e+01
 4.3940000e+00   5.1184789e+01
 4.3994667e+00   5.2534062e+01
 4.4049333e+00   5.5890632e+01
 4.4104000e+00   6.1463272e+01
 4.4158667e+00   7.2455240e+01
 4.4213333e+00   8.8479537e+01
 4.4268000e+00   1.1094333e+02
 4.4322667e+00   1.4308105e+02
 4.4377333e+00   1.8199108e+02
 4.4432000e+00   2.2349090e+02
 4.4486667e+00   2.6298169e+02
 4.4541333e+00   2.9972543e+02
 4.4596000e+00   3.2014375e+02
 4.4650667e+00   3.1345547e+02
 4.4705333e+00   2.8682415e+02
 4.4760000e+00   2.4528930e+02
 4.4814667e+00   2.0491021e+02
 4.4869333e+00   1.6373218e+02
 4.4924000e+00   1.3562593e+02
 4.4978667e+00   1.2474469e+02
 4.5033333e+00   1.1964313e+02
 4.5088000e+00   1.2973532e+02
 4.5142667e+00   1.4056029e+02
 4.5197333e+00   1.6096577e+02
 4.5252000e+00   1.8264502e+02
 4.5306667e+00   2.0553298e+02
 4.5361333e+00   2.2222081e+02
 4.5416000e+00   2.3419946e+02
 4.5470667e+00   2.2842449e+02
 4.5525333e+00   2.1530722e+02
 4.5580000e+00   1.8929269e+02
 4.5634667e+00   1.6640727e+02
 4.5689333e+00   1.3845826e+02
 4.5744000e+00   1.1980832e+02
 4.5798667e+00   1.0121865e+02
 4.5853333e+00   8.9219294e+01
 4.5908000e+00   8.2522615e+01
 4.5962667e+00   7.4937575e+01
 4.6017333e+00   7.1955267e+01
 4.6072000e+00   7.0818857e+01
 4.6126667e+00   7.2137352e+01
 4.6181333e+00   7.6260110e+01
 4.6236000e+00   8.4888671e+01
 4.6290667e+00   1.0222809e+02
 4.6345333e+00   1.3568891e+02
 4.6400000e+00   1.8368889e+02
 4.6454667e+00   2.5939962e+02
 4.6509333e+00   3.5311763e+02
 4.6564000e+00   4.7195867e+02
 4.6618667e+00   5.8937244e+02
 4.6673333e+00   7.0373609e+02
 4.6728000e+00   7.8737472e+02
 4.6782667e+00   8.6235860e+02
 4.6837333e+00   8.6837997e+02
 4.6892000e+00   8.3779969e+02
 4.6946667e+00   7.3478412e+02
 4.7001333e+00   6.4159844e+02
 4.7056000e+00   5.1341688e+02
 4.7110667e+00   3.9875528e+02
 4.7165333e+00   2.9851916e+02
 4.7220000e+00   2.1626569e+02
 4.7274667e+00   1.5338574e+02
 4.7329333e+00   1.1210718e+02
 4.7384000e+00   8.6980610e+01
 4.7438667e+00   7.3704972e+01
 4.7493333e+00   6.6970076e+01
 4.7548000e+00   6.3775496e+01
 4.7602667e+00   6.0834773e+01
 4.7657333e+00   5.9857327e+01
 4.7712000e+00   5.8059119e+01
 4.7766667e+00   5.7311147e+01
 4.7821333e+00   5.6236165e+01
 4.7876000e+00   5.6052140e+01
 4.7930667e+00   5.5142398e+01
 4.7985333e+00   5.5054739e+01
 4.8040000e+00   5.4843432e+01
 4.8094667e+00   5.4388231e+01
 4.8149333e+00   5.4545662e+01
 4.8204000e+00   5.4412700e+01
 4.8258667e+00   5.4150194e+01
 4.8313333e+00   5.3903642e+01
 4.8368000e+00   5.4054179e+01
 4.8422667e+00   5.3764183e+01
 4.8477333e+00   5.4206181e+01
 4.8532000e+00   5.3815428e+01
 4.8586667e+00   5.4375642e+01
 4.8641333e+00   5.3905335e+01
 4.8696000e+00   5.4975268e+01
 4.8750667e+00   5.4156838e+01
 4.8805333e+00   5.5304727e+01
 4.8860000e+00   5.4745973e+01
 4.8914667e+00   5.5716896e+01
 4.8969333e+00   5.5860090e+01
 4.9024000e+00   5.6832556e+01
 4.9078667e+00   5.6959903e+01
 4.9133333e+00   5.8665979e+01
 4.9188000e+00   5.9564440e+01
 4.9242667e+00   6.1359898e+01
 4.9297333e+00   6.4473754e+01
 4.9352000e+00   7.0548913e+01
 4.9406667e+00   8.6896879e+01
 4.9461333e+00   9.1712087e+01
 4.9516000e+00   1.3730434e+02
 4.9570667e+00   1.3396373e+02
 4.9625333e+00   2.3142023e+02
 4.9680000e+00   2.1968766e+02
 4.9734667e+00   3.9070507e+02
 4.9789333e+00   3.4633921e+02
 4.9844000e+00   4.2424851e+02
 4.9898667e+00   4.1103984e+02
 4.9953333e+00   4.0751896e+02
 5.0008000e+00   4.4182535e+02
 5.0062667e+00   3.1743789e+02
 5.0117333e+00   3.7543072e+02
 5.0172000e+00   2.6174557e+02
 5.0226667e+00   2.3899504e+02
 5.0281333e+00   2.1934672e+02
 5.0336000e+00   1.3686227e+02
 5.0390667e+00   1.2400466e+02
 5.0445333e+00   8.4944484e+01
 5.0500000e+00   7.3467395e+01
 5.0554667e+00   6.6844719e+01
 5.0609333e+00   6.2699501e+01
 5.0664000e+00   5.9539555e+01
 5.0718667e+00   5.9010014e+01
 5.0773333e+00   5.6620243e+01
 5.0828000e+00   5.6202705e+01
 5.0882667e+00   5.4707619e+01
 5.0937333e+00   5.4451143e+01
 5.0992000e+00   5.3251611e+01
 5.1046667e+00   5.2822451e+01
 5.1101333e+00   5.2195259e+01
 5.1156000e+00   5.1714147e+01
 5.1210667e+00   5.0954225e+01
 5.1265333e+00   5.0854546e+01
 5.1320000e+00   5.0050396e+01
 5.1374667e+00   5.0015707e+01
 5.1429333e+00   4.9303230e+01
 5.1484000e+00   4.9077150e+01
 5.1538667e+00   4.8784728e+01
 5.1593333e+00   4.8410797e+01
 5.1648000e+00   4.8293647e+01
 5.1702667e+00   4.7700779e+01
 5.1757333e+00   4.7755069e+01
 5.1812000e+00   4.7111887e+01
 5.1866667e+00   4.7130332e+01
 5.1921333e+00   4.6610091e+01
 5.1976000e+00   4.6747871e+01
 5.2030667e+00   4.6167935e+01
 5.2085333e+00   4.6378674e+01
 5.2140000e+00   4.5693552e+01
 5.2194667e+00   4.5884002e+01
 5.2249333e+00   4.5445002e+01
 5.2304000e+00   4.5378785e+01
 5.2358667e+00   4.4976685e+01
 5.2413333e+00   4.5125339e+01
 5.2468000e+00   4.4804867e+01
 5.2522667e+00   4.4726706e+01
 5.2577333e+00   4.4591140e+01
 5.2632000e+00   4.4409064e+01
 5.2686667e+00   4.4334611e+01
 5.2741333e+00   4.4170878e+01
 5.2796000e+00   4.3928864e+01
 5.2850667e+00   4.3919995e+01
 5.2905333e+00   4.3854325e+01
 5.2960000e+00   4.3634720e+01
 5.3014667e+00   4.3592720e+01
 5.3069333e+00   4.3709781e+01
 5.3124000e+00   4.3609442e+01
 5.3178667e+00   4.3388113e+01
 5.3233333e+00   4.3310130e+01
 5.3288000e+00   4.3066782e+01
 5.3342667e+00   4.3012616e+01
 5.3397333e+00   4.2825506e+01
 5.3452000e+00   4.2835918e+01
 5.3506667e+00   4.2853821e+01
 5.3561333e+00   4.2831876e+01
 5.3616000e+00   4.2618927e+01
 5.3670667e+00   4.2632858e+01
 5.3725333e+00   4.2576351e+01
 5.3780000e+00   4.3523917e+01
 5.3834667e+00   4.2450515e+01
 5.3889333e+00   4.4846475e+01
 5.3944000e+00   4.2157988e+01
 5.3998667e+00   4.2148197e+01
 5.4053333e+00   4.1846459e+01
 5.4108000e+00   4.1846194e+01
 5.4162667e+00   4.1597078e+01
 5.4217333e+00   4.1750314e+01
 5.4272000e+00   4.1487419e+01
 5.4326667e+00   4.1661345e+01
 5.4381333e+00   4.1389925e+01
 5.4436000e+00   4.1603943e+01
 5.4490667e+00   4.1341736e+01
 5.4545333e+00   4.1439102e+01
 5.4600000e+00   4.1245335e+01
 5.4654667e+00   4.1286713e+01
 5.4709333e+00   4.1219542e+01
 5.4764000e+00   4.1142371e+01
 5.4818667e+00   4.1252198e+01
 5.4873333e+00   4.1205602e+01
 5.4928000e+00   4.1108857e+01
 5.4982667e+00   4.1165124e+01
 5.5037333e+00   4.1275522e+01
 5.5092000e+00   4.1009169e+01
 5.5146667e+00   4.1233410e+01
 5.5201333e+00   4.1064012e+01
 5.5256000e+00   4.1239954e+01
 5.5310667e+00   4.1046594e+01
 5.5365333e+00   4.1315741e+01
 5.5420000e+00   4.1212562e+01
 5.5474667e+00   4.1396965e+01
 5.5529333e+00   4.1201542e+01
 5.5584000e+00   4.1130474e+01
 5.5638667e+00   4.1395941e+01
 5.5693333e+00   4.1349386e+01
 5.5748000e+00   4.1528893e+01
 5.5802667e+00   4.1342739e+01
 5.5857333e+00   4.1472024e+01
 5.5912000e+00   4.1494908e+01
 5.5966667e+00   4.1630606e+01
 5.6021333e+00   4.1606726e+01
 5.6076000e+00   4.1850375e+01
 5.6130667e+00   4.1745291e+01
 5.6185333e+00   4.1922798e+01
 5.6240000e+00   4.2034322e+01
 5.6294667e+00   4.2188856e+01
 5.6349333e+00   4.2270027e+01
 5.6404000e+00   4.2341658e+01
 5.6458667e+00   4.2506823e+01
 5.6513333e+00   4.2715691e+01
 5.6568000e+00   4.2926185e+01
 5.6622667e+00   4.2966378e+01
 5.6677333e+00   4.3823655e+01
 5.6732000e+00   4.3740846e+01
 5.6786667e+00   4.5033613e+01
 5.6841333e+00   4.6065423e+01
 5.6896000e+00   4.7747420e+01
 5.6950667e+00   5.1007489e+01
 5.7005333e+00   5.9663693e+01
 5.7060000e+00   7.9337443e+01
 5.7114667e+00   7.7875105e+01
 5.7169333e+00   1.1805247e+02
 5.7224000e+00   1.1849776e+02
 5.7278667e+00   1.2010365e+02
 5.7333333e+00   1.6227962e+02
 5.7388000e+00   1.6692053e+02
 5.7442667e+00   1.7350185e+02
 5.7497333e+00   2.2055008e+02
 5.7552000e+00   2.1579088e+02
 5.7606667e+00   1.9611097e+02
 5.7661333e+00   2.1681307e+02
 5.7716000e+00   1.8333664e+02
 5.7770667e+00   2.0791122e+02
 5.7825333e+00   1.5228164e+02
 5.7880000e+00   1.7344955e+02
 5.7934667e+00   1.3741307e+02
 5.7989333e+00   1.2400282e+02
 5.8044000e+00   1.0156931e+02
 5.8098667e+00   9.4104498e+01
 5.8153333e+00   6.1434293e+01
 5.8208000e+00   5.8071260e+01
 5.8262667e+00   5.0095318e+01
 5.8317333e+00   4.7179110e+01
 5.8372000e+00   4.5536711e+01
 5.8426667e+00   4.4680978e+01
 5.8481333e+00   4.3494605e+01
 5.8536000e+00   4.3268293e+01
 5.8590667e+00   4.2508168e+01
 5.8645333e+00   4.2675228e+01
 5.8700000e+00   4.1940901e+01
 5.8754667e+00   4.1961770e+01
 5.8809333e+00   4.1382436e+01
 5.8864000e+00   4.1299007e+01
 5.8918667e+00   4.0866343e+01
 5.8973333e+00   4.0973847e+01
 5.9028000e+00   4.0494224e+01
 5.9082667e+00   4.0502957e+01
 5.9137333e+00   4.0292749e+01
 5.9192000e+00   4.0179153e+01
 5.9246667e+00   3.9875145e+01
 5.9301333e+00   3.9889189e+01
 5.9356000e+00   3.9721750e+01
 5.9410667e+00   3.9647347e+01
 5.9465333e+00   3.9641536e+01
 5.9520000e+00   3.9390461e+01
 5.9574667e+00   3.9548565e+01
 5.9629333e+00   3.9494669e+01
 5.9684000e+00   3.9597332e+01
 5.9738667e+00   3.9406170e+01
 5.9793333e+00   3.9824248e+01
 5.9848000e+00   3.9582692e+01
 5.9902667e+00   3.9606780e+01
 5.9957333e+00   3.9952631e+01
 6.0012000e+00   4.0156123e+01
 6.0066667e+00   4.0748349e+01
 6.0121333e+00   4.1633004e+01
 6.0176000e+00   4.3647959e+01
 6.0230667e+00   4.6771491e+01
 6.0285333e+00   5.2693721e+01
 6.0340000e+00   6.2101736e+01
 6.0394667e+00   7.5099019e+01
 6.0449333e+00   8.9710303e+01
 6.0504000e+00   1.0898719e+02
 6.0558667e+00   1.2598887e+02
 6.0613333e+00   1.4071029e+02
 6.0668000e+00   1.4945175e+02
 6.0722667e+00   1.5171402e+02
 6.0777333e+00   1.5012326e+02
 6.0832000e+00   1.4014507e+02
 6.0886667e+00   1.2487420e+02
 6.0941333e+00   1.0882748e+02
 6.0996000e+00   9.0500148e+01
 6.1050667e+00   7.7553510e+01
 6.1105333e+00   6.4251373e+01
 6.1160000e+00   5.5642587e+01
 6.1214667e+00   4.8632703e+01
 6.1269333e+00   4.4543130e+01
 6.1324000e+00   4.2153728e+01
 6.1378667e+00   4.0495331e+01
 6.1433333e+00   4.0044602e+01
 6.1488000e+00   3.9318131e+01
 6.1542667e+00   3.9138078e+01
 6.1597333e+00   3.8639191e+01
 6.1652000e+00   3.8376135e+01
 6.1706667e+00   3.8214418e+01
 6.1761333e+00   3.8156451e+01
 6.1816000e+00   3.7821764e+01
 6.1870667e+00   3.7948635e+01
 6.1925333e+00   3.7807112e+01
 6.1980000e+00   3.7769391e+01
 6.2034667e+00   3.7535298e+01
 6.2089333e+00   3.7565831e+01
 6.2144000e+00   3.7385408e+01
 6.2198667e+00   3.7404875e+01
 6.2253333e+00   3.7452681e+01
 6.2308000e+00   3.7220100e+01
 6.2362667e+00   3.7406163e+01
 6.2417333e+00   3.7363593e+01
 6.2472000e+00   3.7318347e+01
 6.2526667e+00   3.7793096e+01
 6.2581333e+00   3.7309819e+01
 6.2636000e+00   4.0412298e+01
 6.2690667e+00   3.7242876e+01
 6.2745333e+00   3.8592206e+01
 6.2800000e+00   3.6978287e+01
 6.2854667e+00   3.7275413e+01
 6.2909333e+00   3.6951247e+01
 6.2964000e+00   3.6880048e+01
 6.3018667e+00   3.6842247e+01
 6.3073333e+00   3.6853637e+01
 6.3128000e+00   3.6838172e+01
 6.3182667e+00   3.6837774e+01
 6.3237333e+00   3.6875798e+01
 6.3292000e+00   3.6885958e+01
 6.3346667e+00   3.6860285e+01
 6.3401333e+00   3.7101197e+01
 6.3456000e+00   3.7016262e+01
 6.3510667e+00   3.7413458e+01
 6.3565333e+00   3.7653726e+01
 6.3620000e+00   3.8030736e+01
 6.3674667e+00   3.8546954e+01
 6.3729333e+00   3.9310969e+01
 6.3784000e+00   4.0734070e+01
 6.3838667e+00   4.2001668e+01
 6.3893333e+00   4.4152891e+01
 6.3948000e+00   4.6382796e+01
 6.4002667e+00   4.9379914e+01
 6.4057333e+00   5.1631406e+01
 6.4112000e+00   5.4269621e+01
 6.4166667e+00   5.5523002e+01
 6.4221333e+00   5.6379471e+01
 6.4276000e+00   5.5988133e+01
 6.4330667e+00   5.5318981e+01
 6.4385333e+00   5.3316832e+01
 6.4440000e+00   5.1882200e+01
 6.4494667e+00   4.9063417e+01
 6.4549333e+00   4.7593400e+01
 6.4604000e+00   4.4906859e+01
 6.4658667e+00   4.3703103e+01
 6.4713333e+00   4.1638421e+01
 6.4768000e+00   4.0353634e+01
 6.4822667e+00   3.9359336e+01
 6.4877333e+00   3.8476190e+01
 6.4932000e+00   3.7697895e+01
 6.4986667e+00   3.7533570e+01
 6.5041333e+00   3.7016161e+01
 6.5096000e+00   3.6913600e+01
 6.5150667e+00   3.6760196e+01
 6.5205333e+00   3.6526314e+01
 6.5260000e+00   3.6605486e+01
 6.5314667e+00   3.6315674e+01
 6.5369333e+00   3.6601698e+01
 6.5424000e+00   3.6288982e+01
 6.5478667e+00   3.6447661e+01
 6.5533333e+00   3.6379722e+01
 6.5588000e+00   3.6402843e+01
 6.5642667e+00   3.6333202e+01
 6.5697333e+00   3.6327480e+01
 6.5752000e+00   3.6095493e+01
 6.5806667e+00   3.6302276e+01
 6.5861333e+00   3.6095295e+01
 6.5916000e+00   3.6413217e+01
 6.5970667e+00   3.6055633e+01
 6.6025333e+00   3.6229958e+01
 6.6080000e+00   3.6149237e+01
 6.6134667e+00   3.6176672e+01
 6.6189333e+00   3.6280522e+01
 6.6244000e+00   3.6123700e+01
 6.6298667e+00   3.6239515e+01
 6.6353333e+00   3.6245598e+01
 6.6408000e+00   3.6165024e+01
 6.6462667e+00   3.6250759e+01
 6.6517333e+00   3.6163968e+01
 6.6572000e+00   3.6231577e+01
 6.6626667e+00   3.6320983e+01
 6.6681333e+00   3.6238139e+01
 6.6736000e+00   3.6514467e+01
 6.6790667e+00   3.6204334e+01
 6.6845333e+00   3.6450266e+01
 6.6900000e+00   3.6277992e+01
 6.6954667e+00   3.6349364e+01
 6.7009333e+00   3.6319338e+01
 6.7064000e+00   3.6401112e+01
 6.7118667e+00   3.6501432e+01
 6.7173333e+00   3.6606241e+01
 6.7228000e+00   3.6587177e+01
 6.7282667e+00   3.6564216e+01
 6.7337333e+00   3.6481518e+01
 6.7392000e+00   3.6648193e+01
 6.7446667e+00   3.6496698e+01
 6.7501333e+00   3.6642175e+01
 6.7556000e+00   3.6638194e+01
 6.7610667e+00   3.6661724e+01
 6.7665333e+00   3.6703242e+01
 6.7720000e+00   3.6636679e+01
 6.7774667e+00   3.6835305e+01
 6.7829333e+00   3.6723261e+01
 6.7884000e+00   3.6944627e+01
 6.7938667e+00   3.6772658e+01
 6.7993333e+00   3.7034540e+01
 6.8048000e+00   3.6918703e+01
 6.8102667e+00   3.6985267e+01
 6.8157333e+00   3.7042533e+01
 6.8212000e+00   3.6944653e+01
 6.8266667e+00   3.7103496e+01
 6.8321333e+00   3.7098004e+01
 6.8376000e+00   3.7192403e+01
 6.8430667e+00   3.7312890e+01
 6.8485333e+00   3.7265921e+01
 6.8540000e+00   3.7290515e+01
 6.8594667e+00   3.7354271e+01
 6.8649333e+00   3.7430529e+01
 6.8704000e+00   3.7415840e+01
 6.8758667e+00   3.7474110e+01
 6.8813333e+00   3.7554762e+01
 6.8868000e+00   3.7621428e+01
 6.8922667e+00   3.7653487e+01
 6.8977333e+00   3.7673215e+01
 6.9032000e+00   3.7598355e+01
 6.9086667e+00   3.7913665e+01
 6.9141333e+00   3.7840103e+01
 6.9196000e+00   3.7949891e+01
 6.9250667e+00   3.7886977e+01
 6.9305333e+00   3.8154299e+01
 6.9360000e+00   3.8242925e+01
 6.9414667e+00   3.8299108e+01
 6.9469333e+00   3.8254047e+01
 6.9524000e+00   3.8409498e+01
 6.9578667e+00   3.8424283e+01
 6.9633333e+00   3.8571441e+01
 6.9688000e+00   3.8506630e+01
 6.9742667e+00   3.8844444e+01
 6.9797333e+00   3.8873757e+01
 6.9852000e+00   3.9067326e+01
 6.9906667e+00   3.9118914e+01
 6.9961333e+00   3.9305596e+01
 7.0016000e+00   3.9319774e+01
 7.0070667e+00   3.9446301e+01
 7.0125333e+00   3.9639241e+01
 7.0180000e+00   3.9770362e+01
 7.0234667e+00   3.9923314e+01
 7.0289333e+00   4.0085444e+01
 7.0344000e+00   4.0324142e+01
 7.0398667e+00   4.0356914e+01
 7.0453333e+00   4.0417900e+01
 7.0508000e+00   4.0768743e+01
 7.0562667e+00   4.1095596e+01
 7.0617333e+00   4.1509852e+01
 7.0672000e+00   4.2426277e+01
 7.0726667e+00   4.3501021e+01
 7.0781333e+00   4.5378860e+01
 7.0836000e+00   4.8516384e+01
 7.0890667e+00   5.3681602e+01
 7.0945333e+00   6.2126241e+01
 7.1000000e+00   7.2181580e+01
 7.1054667e+00   8.6286437e+01
 7.1109333e+00   1.0156834e+02
 7.1164000e+00   1.1551490e+02
 7.1218667e+00   1.2830744e+02
 7.1273333e+00   1.3526686e+02
 7.1328000e+00   1.3988549e+02
 7.1382667e+00   1.3754987e+02
 7.1437333e+00   1.3180653e+02
 7.1492000e+00   1.2216585e+02
 7.1546667e+00   1.1077482e+02
 7.1601333e+00   9.8328065e+01
 7.1656000e+00   8.4754909e+01
 7.1710667e+00   7.3629555e+01
 7.1765333e+00   6.2867782e+01
 7.1820000e+00   5.5355068e+01
 7.1874667e+00   5.0298454e+01
 7.1929333e+00   4.6801896e+01
 7.1984000e+00   4.4778737e+01
 7.2038667e+00   4.3598279e+01
 7.2093333e+00   4.2956984e+01
 7.2148000e+00   4.2485903e+01
 7.2202667e+00   4.2024918e+01
 7.2257333e+00   4.1709741e+01
 7.2312000e+00   4.1588276e+01
 7.2366667e+00   4.1456904e+01
 7.2421333e+00   4.1204505e+01
 7.2476000e+00   4.1168718e+01
 7.2530667e+00   4.1211313e+01
 7.2585333e+00   4.0998757e+01
 7.2640000e+00   4.1004847e+01
 7.2694667e+00   4.0833148e+01
 7.2749333e+00   4.0831328e+01
 7.2804000e+00   4.0960657e+01
 7.2858667e+00   4.0894378e+01
 7.2913333e+00   4.0914116e+01
 7.2968000e+00   4.0889946e+01
 7.3022667e+00   4.0845944e+01
 7.3077333e+00   4.0706667e+01
 7.3132000e+00   4.0848276e+01
 7.3186667e+00   4.0521281e+01
 7.3241333e+00   4.0770628e+01
 7.3296000e+00   4.0629432e+01
 7.3350667e+00   4.0838919e+01
 7.3405333e+00   4.0622555e+01
 7.3460000e+00   4.0873649e+01
 7.3514667e+00   4.0617870e+01
 7.3569333e+00   4.0714125e+01
 7.3624000e+00   4.0497842e+01
 7.3678667e+00   4.0682765e+01
 7.3733333e+00   4.0655164e+01
 7.3788000e+00   4.0752415e+01
 7.3842667e+00   4.0657754e+01
 7.3897333e+00   4.0809597e+01
 7.3952000e+00   4.0646640e+01
 7.4006667e+00   4.0758413e+01
 7.4061333e+00   4.0579028e+01
 7.4116000e+00   4.0615900e+01
 7.4170667e+00   4.0670062e+01
 7.4225333e+00   4.0848546e+01
 7.4280000e+00   4.0851008e+01
 7.4334667e+00   4.0862017e+01
 7.4389333e+00   4.0900717e+01
 7.4444000e+00   4.0928762e+01
 7.4498667e+00   4.0889161e+01
 7.4553333e+00   4.0865975e+01
 7.4608000e+00   4.0885783e+01
 7.4662667e+00   4.1077472e+01
 7.4717333e+00   4.0955714e+01
 7.4772000e+00   4.1146262e+01
 7.4826667e+00   4.1065885e+01
 7.4881333e+00   4.1228757e+01
 7.4936000e+00   4.1204381e+01
 7.4990667e+00   4.1226701e+01
 7.5045333e+00   4.1150372e+01
 7.5100000e+00   4.1313464e+01
 7.5154667e+00   4.1294756e+01
 7.5209333e+00   4.1471178e+01
 7.5264000e+00   4.1231179e+01
 7.5318667e+00   4.1421256e+01
 7.5373333e+00   4.1132711e+01
 7.5428000e+00   4.1421852e+01
 7.5482667e+00   4.1300338e+01
 7.5537333e+00   4.1492352e+01
 7.5592000e+00   4.1607587e+01
 7.5646667e+00   4.1666896e+01
 7.5701333e+00   4.1556364e+01
 7.5756000e+00   4.1627889e+01
 7.5810667e+00   4.1623157e+01
 7.5865333e+00   4.1728952e+01
 7.5920000e+00   4.1732211e+01
 7.5974667e+00   4.1811860e+01
 7.6029333e+00   4.1926333e+01
 7.6084000e+00   4.1902183e+01
 7.6138667e+00   4.2008628e+01
 7.6193333e+00   4.1872346e+01
 7.6248000e+00   4.2253728e+01
 7.6302667e+00   4.1920313e+01
 7.6357333e+00   4.2226236e+01
 7.6412000e+00   4.2120640e+01
 7.6466667e+00   4.2361076e+01
 7.6521333e+00   4.2551847e+01
 7.6576000e+00   4.2599076e+01
 7.6630667e+00   4.2483852e+01
 7.6685333e+00   4.2709808e+01
 7.6740000e+00   4.2616265e+01
 7.6794667e+00   4.2918831e+01
 7.6849333e+00   4.2886668e+01
 7.6904000e+00   4.3110815e+01
 7.6958667e+00   4.3181457e+01
 7.7013333e+00   4.3439812e+01
 7.7068000e+00   4.3310121e+01
 7.7122667e+00   4.3623994e+01
 7.7177333e+00   4.3571920e+01
 7.7232000e+00   4.3739027e+01
 7.7286667e+00   4.3856888e+01
 7.7341333e+00   4.3925154e+01
 7.7396000e+00   4.4273272e+01
 7.7450667e+00   4.4325823e+01
 7.7505333e+00   4.4619143e+01
 7.7560000e+00   4.4748479e+01
 7.7614667e+00   4.4882600e+01
 7.7669333e+00   4.5283094e+01
 7.7724000e+00   4.5450902e+01
 7.7778667e+00   4.5656550e+01
 7.7833333e+00   4.6274149e+01
 7.7888000e+00   4.6814642e+01
 7.7942667e+00   4.7503768e+01
 7.7997333e+00   4.8693636e+01
 7.8052000e+00   5.0684943e+01
 7.8106667e+00   5.3064196e+01
 7.8161333e+00   5.8251984e+01
 7.8216000e+00   6.6333296e+01
 7.8270667e+00   7.7688450e+01
 7.8325333e+00   9.3031959e+01
 7.8380000e+00   1.1326022e+02
 7.8434667e+00   1.3158236e+02
 7.8489333e+00   1.4971588e+02
 7.8544000e+00   1.6282052e+02
 7.8598667e+00   1.7318348e+02
 7.8653333e+00   1.7320444e+02
 7.8708000e+00   1.7023657e+02
 7.8762667e+00   1.5943193e+02
 7.8817333e+00   1.4326999e+02
 7.8872000e+00   1.2780722e+02
 7.8926667e+00   1.0774495e+02
 7.8981333e+00   9.3941670e+01
 7.9036000e+00   7.9214599e+01
 7.9090667e+00   6.9542201e+01
 7.9145333e+00   6.1973719e+01
 7.9200000e+00   5.6755964e+01
 7.9254667e+00   5.3816388e+01
 7.9309333e+00   5.1476920e+01
 7.9364000e+00   5.0474456e+01
 7.9418667e+00   4.9222013e+01
 7.9473333e+00   4.8963589e+01
 7.9528000e+00   4.8264848e+01
 7.9582667e+00   4.8287842e+01
 7.9637333e+00   4.7641152e+01
 7.9692000e+00   4.7697743e+01
 7.9746667e+00   4.7295380e+01
 7.9801333e+00   4.7575691e+01
 7.9856000e+00   4.7030210e+01
 7.9910667e+00   4.7255241e+01
 7.9965333e+00   4.7027764e+01
 8.0020000e+00   4.7265635e+01
 8.0074667e+00   4.7009945e+01
 8.0129333e+00   4.7194928e+01
 8.0184000e+00   4.7203498e+01
 8.0238667e+00   4.7207038e+01
 8.0293333e+00   4.7564868e+01
 8.0348000e+00   4.7191563e+01
 8.0402667e+00   4.7706153e+01
 8.0457333e+00   4.7471929e+01
 8.0512000e+00   4.8134423e+01
 8.0566667e+00   4.7763934e+01
 8.0621333e+00   4.8506954e+01
 8.0676000e+00   4.8077885e+01
 8.0730667e+00   4.8853764e+01
 8.0785333e+00   4.9050499e+01
 8.0840000e+00   4.9662809e+01
 8.0894667e+00   5.1582358e+01
 8.0949333e+00   5.2351396e+01
 8.1004000e+00   6.3566748e+01
 8.1058667e+00   5.5758329e+01
 8.1113333e+00   7.9213548e+01
 8.1168000e+00   7.8564896e+01
 8.1222667e+00   9.6308717e+01
 8.1277333e+00   9.4693036e+01
 8.1332000e+00   1.2751191e+02
 8.1386667e+00   1.3258771e+02
 8.1441333e+00   1.1710550e+02
 8.1496000e+00   1.0064042e+02
 8.1550667e+00   1.2234665e+02
 8.1605333e+00   9.9133124e+01
 8.1660000e+00   1.4057898e+02
 8.1714667e+00   1.0332257e+02
 8.1769333e+00   1.2700432e+02
 8.1824000e+00   1.0031216e+02
 8.1878667e+00   9.9822420e+01
 8.1933333e+00   1.0912572e+02
 8.1988000e+00   9.2307848e+01
 8.2042667e+00   1.1708141e+02
 8.2097333e+00   8.6849702e+01
 8.2152000e+00   9.0063767e+01
 8.2206667e+00   7.2264303e+01
 8.2261333e+00   6.5688433e+01
 8.2316000e+00   6.2961056e+01
 8.2370667e+00   6.2718028e+01
 8.2425333e+00   6.1839816e+01
 8.2480000e+00   6.0997002e+01
 8.2534667e+00   5.9511501e+01
 8.2589333e+00   5.8271186e+01
 8.2644000e+00   5.6061833e+01
 8.2698667e+00   5.4963419e+01
 8.2753333e+00   5.2761064e+01
 8.2808000e+00   5.2226144e+01
 8.2862667e+00   5.0877670e+01
 8.2917333e+00   5.0560379e+01
 8.2972000e+00   4.9869420e+01
 8.3026667e+00   4.9931864e+01
 8.3081333e+00   4.9508870e+01
 8.3136000e+00   4.9610636e+01
 8.3190667e+00   4.9392317e+01
 8.3245333e+00   4.9599804e+01
 8.3300000e+00   4.9584545e+01
 8.3354667e+00   4.9678831e+01
 8.3409333e+00   4.9885825e+01
 8.3464000e+00   5.0161571e+01
 8.3518667e+00   5.0713440e+01
 8.3573333e+00   5.1406499e+01
 8.3628000e+00   5.3348963e+01
 8.3682667e+00   5.5237680e+01
 8.3737333e+00   6.0443459e+01
 8.3792000e+00   6.5415616e+01
 8.3846667e+00   7.5595030e+01
 8.3901333e+00   8.4959713e+01
 8.3956000e+00   9.7682778e+01
 8.4010667e+00   1.0885647e+02
 8.4065333e+00   1.2090393e+02
 8.4120000e+00   1.2941118e+02
 8.4174667e+00   1.3445083e+02
 8.4229333e+00   1.3460640e+02
 8.4284000e+00   1.3024102e+02
 8.4338667e+00   1.2033006e+02
 8.4393333e+00   1.0887314e+02
 8.4448000e+00   9.4915597e+01
 8.4502667e+00   8.3237191e+01
 8.4557333e+00   7.3053698e+01
 8.4612000e+00   6.5083072e+01
 8.4666667e+00   6.0338107e+01
 8.4721333e+00   5.6342629e+01
 8.4776000e+00   5.5438468e+01
 8.4830667e+00   5.4723113e+01
 8.4885333e+00   5.6614188e+01
 8.4940000e+00   5.8239694e+01
 8.4994667e+00   6.3362776e+01
 8.5049333e+00   6.7583160e+01
 8.5104000e+00   7.5802935e+01
 8.5158667e+00   8.1780957e+01
 8.5213333e+00   9.0272334e+01
 8.5268000e+00   9.5586043e+01
 8.5322667e+00   1.0160092e+02
 8.5377333e+00   1.0404339e+02
 8.5432000e+00   1.0523075e+02
 8.5486667e+00   1.0198196e+02
 8.5541333e+00   9.7454604e+01
 8.5596000e+00   8.8412533e+01
 8.5650667e+00   8.0486191e+01
 8.5705333e+00   7.1456872e+01
 8.5760000e+00   6.3710224e+01
 8.5814667e+00   5.9319436e+01
 8.5869333e+00   5.4562443e+01
 8.5924000e+00   5.2215256e+01
 8.5978667e+00   5.0339613e+01
 8.6033333e+00   4.9623666e+01
 8.6088000e+00   4.8556099e+01
 8.6142667e+00   4.8495371e+01
 8.6197333e+00   4.7870941e+01
 8.6252000e+00   4.7822249e+01
 8.6306667e+00   4.7374610e+01
 8.6361333e+00   4.7290929e+01
 8.6416000e+00   4.6891547e+01
 8.6470667e+00   4.6882948e+01
 8.6525333e+00   4.6631847e+01
 8.6580000e+00   4.6639980e+01
 8.6634667e+00   4.6237940e+01
 8.6689333e+00   4.6341023e+01
 8.6744000e+00   4.5995313e+01
 8.6798667e+00   4.6096250e+01
 8.6853333e+00   4.5882374e+01
 8.6908000e+00   4.5666412e+01
 8.6962667e+00   4.5715021e+01
 8.7017333e+00   4.5403467e+01
 8.7072000e+00   4.5616654e+01
 8.7126667e+00   4.5152825e+01
 8.7181333e+00   4.5359151e+01
 8.7236000e+00   4.5009185e+01
 8.7290667e+00   4.5193318e+01
 8.7345333e+00   4.4837973e+01
 8.7400000e+00   4.5026338e+01
 8.7454667e+00   4.4648635e+01
 8.7509333e+00   4.4838302e+01
 8.7564000e+00   4.4506344e+01
 8.7618667e+00   4.4685963e+01
 8.7673333e+00   4.4457015e+01
 8.7728000e+00   4.4554273e+01
 8.7782667e+00   4.4414185e+01
 8.7837333e+00   4.4336683e+01
 8.7892000e+00   4.4290426e+01
 8.7946667e+00   4.4119847e+01
 8.8001333e+00   4.4146500e+01
 8.8056000e+00   4.3985652e+01
 8.8110667e+00   4.4039056e+01
 8.8165333e+00   4.4053797e+01
 8.8220000e+00   4.4078845e+01
 8.8274667e+00   4.3760165e+01
 8.8329333e+00   4.4110978e+01
 8.8384000e+00   4.3541259e+01
 8.8438667e+00   4.3829414e+01
 8.8493333e+00   4.3483470e+01
 8.8548000e+00   4.3829385e+01
 8.8602667e+00   4.3572966e+01
 8.8657333e+00   4.3753235e+01
 8.8712000e+00   4.3754050e+01
 8.8766667e+00   4.4087656e+01
 8.8821333e+00   4.4044494e+01
 8.8876000e+00   4.4973122e+01
 8.8930667e+00   4.5487014e+01
 8.8985333e+00   4.7024114e+01
 8.9040000e+00   4.8389556e+01
 8.9094667e+00   5.0519598e+01
 8.9149333e+00   5.2718479e+01
 8.9204000e+00   5.4358478e+01
 8.9258667e+00   5.6375627e+01
 8.9313333e+00   5.6171518e+01
 8.9368000e+00   5.6754129e+01
 8.9422667e+00   5.5195518e+01
 8.9477333e+00   5.3831281e+01
 8.9532000e+00   5.0920035e+01
 8.9586667e+00   4.9240979e+01
 8.9641333e+00   4.6680929e+01
 8.9696000e+00   4.5996121e+01
 8.9750667e+00   4.4226207e+01
 8.9805333e+00   4.3947308e+01
 8.9860000e+00   4.2931254e+01
 8.9914667e+00   4.2972566e+01
 8.9969333e+00   4.2342761e+01
 9.0024000e+00   4.2439252e+01
 9.0078667e+00   4.2105075e+01
 9.0133333e+00   4.2315293e+01
 9.0188000e+00   4.2026149e+01
 9.0242667e+00   4.2090640e+01
 9.0297333e+00   4.1865103e+01
 9.0352000e+00   4.1972164e+01
 9.0406667e+00   4.2051243e+01
 9.0461333e+00   4.2031912e+01
 9.0516000e+00   4.2443998e+01
 9.0570667e+00   4.2610551e+01
 9.0625333e+00   4.3407328e+01
 9.0680000e+00   4.3622646e+01
 9.0734667e+00   4.4634610e+01
 9.0789333e+00   4.4803146e+01
 9.0844000e+00   4.5797975e+01
 9.0898667e+00   4.5874027e+01
 9.0953333e+00   4.6511742e+01
 9.1008000e+00   4.5938214e+01
 9.1062667e+00   4.6081036e+01
 9.1117333e+00   4.5230965e+01
 9.1172000e+00   4.4825510e+01
 9.1226667e+00   4.3812194e+01
 9.1281333e+00   4.3352897e+01
 9.1336000e+00   4.2375472e+01
 9.1390667e+00   4.2087740e+01
 9.1445333e+00   4.1483423e+01
 9.1500000e+00   4.1111784e+01
 9.1554667e+00   4.0945566e+01
 9.1609333e+00   4.0799175e+01
 9.1664000e+00   4.0519345e+01
 9.1718667e+00   4.0458523e+01
 9.1773333e+00   4.0363439e+01
 9.1828000e+00   4.0302989e+01
 9.1882667e+00   4.0109802e+01
 9.1937333e+00   4.0103121e+01
 9.1992000e+00   4.0014704e+01
 9.2046667e+00   4.0046566e+01
 9.2101333e+00   3.9923317e+01
 9.2156000e+00   3.9971847e+01
 9.2210667e+00   3.9797800e+01
 9.2265333e+00   3.9744438e+01
 9.2320000e+00   3.9760806e+01
 9.2374667e+00   3.9681407e+01
 9.2429333e+00   3.9691701e+01
 9.2484000e+00   3.9708798e+01
 9.2538667e+00   3.9607712e+01
 9.2593333e+00   3.9719224e+01
 9.2648000e+00   3.9567020e+01
 9.2702667e+00   3.9529931e+01
 9.2757333e+00   3.9585183e+01
 9.2812000e+00   3.9591947e+01
 9.2866667e+00   3.9534497e+01
 9.2921333e+00   3.9736013e+01
 9.2976000e+00   3.9598275e+01
 9.3030667e+00   3.9794714e+01
 9.3085333e+00   3.9624825e+01
 9.3140000e+00   4.0005481e+01
 9.3194667e+00   3.9826010e+01
 9.3249333e+00   4.0559308e+01
 9.3304000e+00   4.0667565e+01
 9.3358667e+00   4.1740932e+01
 9.3413333e+00   4.2727478e+01
 9.3468000e+00   4.4587211e+01
 9.3522667e+00   4.6137385e+01
 9.3577333e+00   4.8126156e+01
 9.3632000e+00   4.9311578e+01
 9.3686667e+00   5.0948862e+01
 9.3741333e+00   5.1485276e+01
 9.3796000e+00   5.1544639e+01
 9.3850667e+00   5.1072091e+01
 9.3905333e+00   4.9769552e+01
 9.3960000e+00   4.8189168e+01
 9.4014667e+00   4.6221332e+01
 9.4069333e+00   4.4595849e+01
 9.4124000e+00   4.2926863e+01
 9.4178667e+00   4.1859607e+01
 9.4233333e+00   4.0789662e+01
 9.4288000e+00   4.0396268e+01
 9.4342667e+00   3.9767958e+01
 9.4397333e+00   3.9908101e+01
 9.4452000e+00   3.9603463e+01
 9.4506667e+00   3.9617304e+01
 9.4561333e+00   3.9501677e+01
 9.4616000e+00   3.9812465e+01
 9.4670667e+00   3.9491029e+01
 9.4725333e+00   3.9794754e+01
 9.4780000e+00   3.9721257e+01
 9.4834667e+00   4.0303053e+01
 9.4889333e+00   4.0456855e+01
 9.4944000e+00   4.2241411e+01
 9.4998667e+00   4.1387477e+01
 9.5053333e+00   5.3552111e+01
 9.5108000e+00   4.8240288e+01
 9.5162667e+00   6.6375216e+01
 9.5217333e+00   5.8175825e+01
 9.5272000e+00   6.9380727e+01
 9.5326667e+00   7.2930688e+01
 9.5381333e+00   8.1037454e+01
 9.5436000e+00   8.9314118e+01
 9.5490667e+00   1.0585921e+02
 9.5545333e+00   1.1312283e+02
 9.5600000e+00   1.2999740e+02
 9.5654667e+00   1.2022640e+02
 9.5709333e+00   1.2253248e+02
 9.5764000e+00   1.0852610e+02
 9.5818667e+00   1.1998408e+02
 9.5873333e+00   9.8094465e+01
 9.5928000e+00   1.0057009e+02
 9.5982667e+00   9.5813524e+01
 9.6037333e+00   7.7331842e+01
 9.6092000e+00   7.8933403e+01
 9.6146667e+00   6.0065724e+01
 9.6201333e+00   5.5870210e+01
 9.6256000e+00   4.8048399e+01
 9.6310667e+00   4.4981532e+01
 9.6365333e+00   4.1621432e+01
 9.6420000e+00   4.0495037e+01
 9.6474667e+00   3.9489356e+01
 9.6529333e+00   3.9185254e+01
 9.6584000e+00   3.8845914e+01
 9.6638667e+00   3.8648188e+01
 9.6693333e+00   3.8380564e+01
 9.6748000e+00   3.8675052e+01
 9.6802667e+00   3.8398887e+01
 9.6857333e+00   3.8280758e+01
 9.6912000e+00   3.8124267e+01
 9.6966667e+00   3.7815805e+01
 9.7021333e+00   3.8005912e+01
 9.7076000e+00   3.7533148e+01
 9.7130667e+00   3.7586066e+01
 9.7185333e+00   3.7239390e+01
 9.7240000e+00   3.7584944e+01
 9.7294667e+00   3.7155374e+01
 9.7349333e+00   3.7310180e+01
 9.7404000e+00   3.6894519e+01
 9.7458667e+00   3.7228623e+01
 9.7513333e+00   3.6750683e+01
 9.7568000e+00   3.6936725e+01
 9.7622667e+00   3.6635249e+01
 9.7677333e+00   3.6844431e+01
 9.7732000e+00   3.6646048e+01
 9.7786667e+00   3.6893049e+01
 9.7841333e+00   3.6944121e+01
 9.7896000e+00   3.7327804e+01
 9.7950667e+00   3.7699631e+01
 9.8005333e+00   3.8386406e+01
 9.8060000e+00   3.9387190e+01
 9.8114667e+00   4.0676517e+01
 9.8169333e+00   4.2436390e+01
 9.8224000e+00   4.3773357e+01
 9.8278667e+00   4.5306860e+01
 9.8333333e+00   4.6561542e+01
 9.8388000e+00   4.7106321e+01
 9.8442667e+00   4.7016842e+01
 9.8497333e+00   4.6465647e+01
 9.8552000e+00   4.4962141e+01
 9.8606667e+00   4.3561751e+01
 9.8661333e+00   4.2064523e+01
 9.8716000e+00   4.0458268e+01
 9.8770667e+00   3.9395427e+01
 9.8825333e+00   3.8533315e+01
 9.8880000e+00   3.7718303e+01
 9.8934667e+00   3.7423846e+01
 9.8989333e+00   3.7053885e+01
 9.9044000e+00   3.6732331e+01
 9.9098667e+00   3.7091841e+01
 9.9153333e+00   3.7144168e+01
 9.9208000e+00   3.7130091e+01
 9.9262667e+00   3.7404314e+01
 9.9317333e+00   3.7687960e+01
 9.9372000e+00   3.8194117e+01
 9.9426667e+00   3.8648480e+01
 9.9481333e+00   4.0675255e+01
 9.9536000e+00   4.4743896e+01
 9.9590667e+00   4.5455155e+01
 9.9645333e+00   4.8499161e+01
 9.9700000e+00   6.5704998e+01
 9.9754667e+00   5.9168743e+01
 9.9809333e+00   7.0024089e+01
 9.9864000e+00   8.7989355e+01
 9.9918667e+00   9.6972577e+01
 9.9973333e+00   8.9708463e+01
 1.0002800e+01   8.6674000e+01
 1.0008267e+01   1.0422600e+02
 1.0013733e+01   7.2396195e+01
 1.0019200e+01   1.0128244e+02
 1.0024667e+01   6.9543354e+01
 1.0030133e+01   9.3563173e+01
 1.0035600e+01   8.0439405e+01
 1.0041067e+01   7.5058081e+01
 1.0046533e+01   7.3219350e+01
 1.0052000e+01   7.2677023e+01
 1.0057467e+01   5.0706394e+01
 1.0062933e+01   4.6922570e+01
 1.0068400e+01   4.3986366e+01
 1.0073867e+01   3.8380230e+01
 1.0079333e+01   3.8791114e+01
 1.0084800e+01   3.7535568e+01
 1.0090267e+01   3.7113420e+01
 1.0095733e+01   3.6652599e+01
 1.0101200e+01   3.6741176e+01
 1.0106667e+01   3.6473168e+01
 1.0112133e+01   3.6571017e+01
 1.0117600e+01   3.6391859e+01
 1.0123067e+01   3.6801132e+01
 1.0128533e+01   3.6666872e+01
 1.0134000e+01   3.7093733e+01
 1.0139467e+01   3.7112355e+01
 1.0144933e+01   3.7520871e+01
 1.0150400e+01   3.7922753e+01
 1.0155867e+01   3.8374253e+01
 1.0161333e+01   3.8715238e+01
 1.0166800e+01   3.9031677e+01
 1.0172267e+01   3.8884405e+01
 1.0177733e+01   3.8966559e+01
 1.0183200e+01   3.8567440e+01
 1.0188667e+01   3.8440765e+01
 1.0194133e+01   3.7808247e+01
 1.0199600e+01   3.7551233e+01
 1.0205067e+01   3.6809695e+01
 1.0210533e+01   3.6570447e+01
 1.0216000e+01   3.5844709e+01
 1.0221467e+01   3.5607465e+01
 1.0226933e+01   3.5009325e+01
 1.0232400e+01   3.4893596e+01
 1.0237867e+01   3.4471398e+01
 1.0243333e+01   3.4397482e+01
 1.0248800e+01   3.4025348e+01
 1.0254267e+01   3.4354688e+01
 1.0259733e+01   3.3912588e+01
 1.0265200e+01   3.4023310e+01
 1.0270667e+01   3.3816203e+01
 1.0276133e+01   3.3822333e+01
 1.0281600e+01   3.3711514e+01
 1.0287067e+01   3.3671939e+01
 1.0292533e+01   3.3716023e+01
 1.0298000e+01   3.3575049e+01
 1.0303467e+01   3.3587828e+01
 1.0308933e+01   3.3631072e+01
 1.0314400e+01   3.3479011e+01
 1.0319867e+01   3.3499971e+01
 1.0325333e+01   3.3355913e+01
 1.0330800e+01   3.3514331e+01
 1.0336267e+01   3.3202815e+01
 1.0341733e+01   3.3572216e+01
 1.0347200e+01   3.3306046e+01
 1.0352667e+01   3.3463688e+01
 1.0358133e+01   3.3318649e+01
 1.0363600e+01   3.3319470e+01
 1.0369067e+01   3.3250071e+01
 1.0374533e+01   3.3294689e+01
 1.0380000e+01   3.3225878e+01
 1.0385467e+01   3.3289898e+01
 1.0390933e+01   3.3286132e+01
 1.0396400e+01   3.3336480e+01
 1.0401867e+01   3.3277164e+01
 1.0407333e+01   3.3384503e+01
 1.0412800e+01   3.3286875e+01
 1.0418267e+01   3.3794857e+01
 1.0423733e+01   3.3406138e+01
 1.0429200e+01   3.7578667e+01
 1.0434667e+01   3.4083480e+01
 1.0440133e+01   3.4617562e+01
 1.0445600e+01   3.3732647e+01
 1.0451067e+01   3.3493843e+01
 1.0456533e+01   3.3301905e+01
 1.0462000e+01   3.3316247e+01
 1.0467467e+01   3.3174900e+01
 1.0472933e+01   3.3047856e+01
 1.0478400e+01   3.3322424e+01
 1.0483867e+01   3.3289446e+01
 1.0489333e+01   3.3297712e+01
 1.0494800e+01   3.3342191e+01
 1.0500267e+01   3.3337041e+01
 1.0505733e+01   3.3296602e+01
 1.0511200e+01   3.3231832e+01
 1.0516667e+01   3.3312529e+01
 1.0522133e+01   3.3348540e+01
 1.0527600e+01   3.3459808e+01
 1.0533067e+01   3.3395373e+01
 1.0538533e+01   3.3491439e+01
 1.0544000e+01   3.3554037e+01
 1.0549467e+01   3.3494694e+01
 1.0554933e+01   3.3737249e+01
 1.0560400e+01   3.3602933e+01
 1.0565867e+01   3.3877395e+01
 1.0571333e+01   3.4249473e+01
 1.0576800e+01   3.4755936e+01
 1.0582267e+01   3.5626052e+01
 1.0587733e+01   3.6924330e+01
 1.0593200e+01   3.8540178e+01
 1.0598667e+01   4.0797296e+01
 1.0604133e+01   4.3304477e+01
 1.0609600e+01   4.6020942e+01
 1.0615067e+01   4.8356231e+01
 1.0620533e+01   5.0508830e+01
 1.0626000e+01   5.1387989e+01
 1.0631467e+01   5.2600450e+01
 1.0636933e+01   5.1034244e+01
 1.0642400e+01   5.5151069e+01
 1.0647867e+01   4.7321184e+01
 1.0653333e+01   4.8760274e+01
 1.0658800e+01   4.2522526e+01
 1.0664267e+01   4.0263546e+01
 1.0669733e+01   3.8178126e+01
 1.0675200e+01   3.6534166e+01
 1.0680667e+01   3.5437375e+01
 1.0686133e+01   3.4826393e+01
 1.0691600e+01   3.4287350e+01
 1.0697067e+01   3.4067016e+01
 1.0702533e+01   3.4326318e+01
 1.0708000e+01   3.3803834e+01
 1.0713467e+01   3.4141910e+01
 1.0718933e+01   3.3961999e+01
 1.0724400e+01   3.3692275e+01
 1.0729867e+01   3.3566677e+01
 1.0735333e+01   3.3555464e+01
 1.0740800e+01   3.3404823e+01
 1.0746267e+01   3.3493635e+01
 1.0751733e+01   3.3334790e+01
 1.0757200e+01   3.3414377e+01
 1.0762667e+01   3.3436873e+01
 1.0768133e+01   3.3435045e+01
 1.0773600e+01   3.3245059e+01
 1.0779067e+01   3.3419104e+01
 1.0784533e+01   3.3318214e+01
 1.0790000e+01   3.3418642e+01
 1.0795467e+01   3.3344469e+01
 1.0800933e+01   3.3353027e+01
 1.0806400e+01   3.3255414e+01
 1.0811867e+01   3.3364468e+01
 1.0817333e+01   3.3280813e+01
 1.0822800e+01   3.3371954e+01
 1.0828267e+01   3.3436176e+01
 1.0833733e+01   3.3376403e+01
 1.0839200e+01   3.3458433e+01
 1.0844667e+01   3.3507050e+01
 1.0850133e+01   3.3523510e+01
 1.0855600e+01   3.3653622e+01
 1.0861067e+01   3.3802351e+01
 1.0866533e+01   3.4090652e+01
 1.0872000e+01   3.4384366e+01
 1.0877467e+01   3.4721037e+01
 1.0882933e+01   3.5305122e+01
 1.0888400e+01   3.5871498e+01
 1.0893867e+01   3.6353544e+01
 1.0899333e+01   3.6908838e+01
 1.0904800e+01   3.7113291e+01
 1.0910267e+01   3.7550319e+01
 1.0915733e+01   3.7473407e+01
 1.0921200e+01   3.7259092e+01
 1.0926667e+01   3.6998955e+01
 1.0932133e+01   3.6518347e+01
 1.0937600e+01   3.6067878e+01
 1.0943067e+01   3.5429117e+01
 1.0948533e+01   3.5113310e+01
 1.0954000e+01   3.4635148e+01
 1.0959467e+01   3.4536607e+01
 1.0964933e+01   3.4167313e+01
 1.0970400e+01   3.4169024e+01
 1.0975867e+01   3.3884329e+01
 1.0981333e+01   3.4079735e+01
 1.0986800e+01   3.3830654e+01
 1.0992267e+01   3.3906598e+01
 1.0997733e+01   3.3852840e+01
 1.1003200e+01   3.4155945e+01
 1.1008667e+01   3.3965634e+01
 1.1014133e+01   3.4037278e+01
 1.1019600e+01   3.4031510e+01
 1.1025067e+01   3.4082904e+01
 1.1030533e+01   3.4159445e+01
 1.1036000e+01   3.4165510e+01
 1.1041467e+01   3.4198028e+01
 1.1046933e+01   3.4349560e+01
 1.1052400e+01   3.4303703e+01
 1.1057867e+01   3.4468970e+01
 1.1063333e+01   3.4627802e+01
 1.1068800e+01   3.4774723e+01
 1.1074267e+01   3.5069754e+01
 1.1079733e+01   3.5261137e+01
 1.1085200e+01   3.5995260e+01
 1.1090667e+01   3.6966888e+01
 1.1096133e+01   3.8390621e+01
 1.1101600e+01   4.0425160e+01
 1.1107067e+01   4.2829595e+01
 1.1112533e+01   4.5894331e+01
 1.1118000e+01   4.8866492e+01
 1.1123467e+01   5.1882362e+01
 1.1128933e+01   5.4218577e+01
 1.1134400e+01   5.6050086e+01
 1.1139867e+01   5.6808102e+01
 1.1145333e+01   5.6402757e+01
 1.1150800e+01   5.4970560e+01
 1.1156267e+01   5.2795324e+01
 1.1161733e+01   5.0000273e+01
 1.1167200e+01   4.6593583e+01
 1.1172667e+01   4.3850992e+01
 1.1178133e+01   4.1185523e+01
 1.1183600e+01   3.9017015e+01
 1.1189067e+01   3.7346642e+01
 1.1194533e+01   3.6477486e+01
