PWDR ff_004449_sum_norm_dc_0.tif Azm= 352.fxye Bank 1
2-Theta Angle (Degrees)
Intensity
       1500
 3.0000000e+00   4.6767892e+01
 3.0054667e+00   4.6139199e+01
 3.0109333e+00   4.6161230e+01
 3.0164000e+00   4.5894585e+01
 3.0218667e+00   4.5658880e+01
 3.0273333e+00   4.5395677e+01
 3.0328000e+00   4.5073687e+01
 3.0382667e+00   4.5037351e+01
 3.0437333e+00   4.4577030e+01
 3.0492000e+00   4.4650692e+01
 3.0546667e+00   4.4382599e+01
 3.0601333e+00   4.4276234e+01
 3.0656000e+00   4.3991074e+01
 3.0710667e+00   4.3976288e+01
 3.0765333e+00   4.3615751e+01
 3.0820000e+00   4.3657663e+01
 3.0874667e+00   4.3205244e+01
 3.0929333e+00   4.3325745e+01
 3.0984000e+00   4.2946181e+01
 3.1038667e+00   4.3128460e+01
 3.1093333e+00   4.2669188e+01
 3.1148000e+00   4.2504889e+01
 3.1202667e+00   4.2483274e+01
 3.1257333e+00   4.2045613e+01
 3.1312000e+00   4.1923397e+01
 3.1366667e+00   4.1726658e+01
 3.1421333e+00   4.1667974e+01
 3.1476000e+00   4.1502448e+01
 3.1530667e+00   4.1673517e+01
 3.1585333e+00   4.1049934e+01
 3.1640000e+00   4.1660428e+01
 3.1694667e+00   4.0940466e+01
 3.1749333e+00   4.1390210e+01
 3.1804000e+00   4.0857589e+01
 3.1858667e+00   4.0956647e+01
 3.1913333e+00   4.0692416e+01
 3.1968000e+00   4.0828579e+01
 3.2022667e+00   4.0545439e+01
 3.2077333e+00   4.0743503e+01
 3.2132000e+00   4.0231977e+01
 3.2186667e+00   4.0495904e+01
 3.2241333e+00   4.0427398e+01
 3.2296000e+00   3.9923286e+01
 3.2350667e+00   4.0138452e+01
 3.2405333e+00   3.9819953e+01
 3.2460000e+00   4.0298288e+01
 3.2514667e+00   3.9673414e+01
 3.2569333e+00   4.0192328e+01
 3.2624000e+00   3.9518234e+01
 3.2678667e+00   3.9892301e+01
 3.2733333e+00   3.9449263e+01
 3.2788000e+00   3.9507105e+01
 3.2842667e+00   3.9345101e+01
 3.2897333e+00   3.9585733e+01
 3.2952000e+00   3.9365197e+01
 3.3006667e+00   3.9407078e+01
 3.3061333e+00   3.9291166e+01
 3.3116000e+00   3.9027293e+01
 3.3170667e+00   3.9251983e+01
 3.3225333e+00   3.8693027e+01
 3.3280000e+00   3.9112186e+01
 3.3334667e+00   3.8582927e+01
 3.3389333e+00   3.9071429e+01
 3.3444000e+00   3.8666351e+01
 3.3498667e+00   3.9029865e+01
 3.3553333e+00   3.8625416e+01
 3.3608000e+00   3.8773046e+01
 3.3662667e+00   3.8334603e+01
 3.3717333e+00   3.8946746e+01
 3.3772000e+00   3.8337151e+01
 3.3826667e+00   4.0256745e+01
 3.3881333e+00   3.8753286e+01
 3.3936000e+00   3.8576882e+01
 3.3990667e+00   3.8994323e+01
 3.4045333e+00   3.8330717e+01
 3.4100000e+00   3.8677110e+01
 3.4154667e+00   3.8179013e+01
 3.4209333e+00   3.8238318e+01
 3.4264000e+00   3.7894225e+01
 3.4318667e+00   3.8094616e+01
 3.4373333e+00   3.7872873e+01
 3.4428000e+00   3.8101056e+01
 3.4482667e+00   3.7663978e+01
 3.4537333e+00   3.8110671e+01
 3.4592000e+00   3.7771508e+01
 3.4646667e+00   3.8062315e+01
 3.4701333e+00   3.7725068e+01
 3.4756000e+00   3.7988141e+01
 3.4810667e+00   3.7906049e+01
 3.4865333e+00   3.7821149e+01
 3.4920000e+00   3.7825789e+01
 3.4974667e+00   3.7717844e+01
 3.5029333e+00   3.7696678e+01
 3.5084000e+00   3.7613219e+01
 3.5138667e+00   3.7809589e+01
 3.5193333e+00   3.7446906e+01
 3.5248000e+00   3.8062616e+01
 3.5302667e+00   3.7628613e+01
 3.5357333e+00   3.8157373e+01
 3.5412000e+00   3.7744999e+01
 3.5466667e+00   3.7952234e+01
 3.5521333e+00   3.7931443e+01
 3.5576000e+00   3.7872341e+01
 3.5630667e+00   3.7749827e+01
 3.5685333e+00   3.7969419e+01
 3.5740000e+00   3.7719955e+01
 3.5794667e+00   3.7842035e+01
 3.5849333e+00   3.7836616e+01
 3.5904000e+00   3.7704020e+01
 3.5958667e+00   3.7854882e+01
 3.6013333e+00   3.7865465e+01
 3.6068000e+00   3.8121311e+01
 3.6122667e+00   3.7795165e+01
 3.6177333e+00   3.8222893e+01
 3.6232000e+00   3.7929382e+01
 3.6286667e+00   3.8154040e+01
 3.6341333e+00   3.8198193e+01
 3.6396000e+00   3.8012287e+01
 3.6450667e+00   3.8033661e+01
 3.6505333e+00   3.8290077e+01
 3.6560000e+00   3.8108976e+01
 3.6614667e+00   3.8245685e+01
 3.6669333e+00   3.8504496e+01
 3.6724000e+00   3.8378675e+01
 3.6778667e+00   3.8685363e+01
 3.6833333e+00   3.8347135e+01
 3.6888000e+00   3.8869969e+01
 3.6942667e+00   3.8696333e+01
 3.6997333e+00   3.8965501e+01
 3.7052000e+00   3.8726749e+01
 3.7106667e+00   3.9134435e+01
 3.7161333e+00   3.8741889e+01
 3.7216000e+00   3.9171138e+01
 3.7270667e+00   3.8856394e+01
 3.7325333e+00   3.8997020e+01
 3.7380000e+00   3.9017923e+01
 3.7434667e+00   3.9152292e+01
 3.7489333e+00   3.9295556e+01
 3.7544000e+00   3.9446304e+01
 3.7598667e+00   3.9443487e+01
 3.7653333e+00   3.9581839e+01
 3.7708000e+00   3.9777673e+01
 3.7762667e+00   3.9532140e+01
 3.7817333e+00   3.9659698e+01
 3.7872000e+00   3.9535663e+01
 3.7926667e+00   3.9683627e+01
 3.7981333e+00   3.9645596e+01
 3.8036000e+00   3.9935479e+01
 3.8090667e+00   3.9663401e+01
 3.8145333e+00   4.0056046e+01
 3.8200000e+00   3.9888035e+01
 3.8254667e+00   4.0167030e+01
 3.8309333e+00   4.0334761e+01
 3.8364000e+00   4.0373829e+01
 3.8418667e+00   4.0493259e+01
 3.8473333e+00   4.0797426e+01
 3.8528000e+00   4.0761723e+01
 3.8582667e+00   4.0612715e+01
 3.8637333e+00   4.0985557e+01
 3.8692000e+00   4.0834736e+01
 3.8746667e+00   4.0929355e+01
 3.8801333e+00   4.1124555e+01
 3.8856000e+00   4.1238987e+01
 3.8910667e+00   4.1436676e+01
 3.8965333e+00   4.1739842e+01
 3.9020000e+00   4.2512382e+01
 3.9074667e+00   4.2447100e+01
 3.9129333e+00   4.2133561e+01
 3.9184000e+00   4.2261510e+01
 3.9238667e+00   4.2130334e+01
 3.9293333e+00   4.2035268e+01
 3.9348000e+00   4.2247347e+01
 3.9402667e+00   4.2087507e+01
 3.9457333e+00   4.2298100e+01
 3.9512000e+00   4.2381029e+01
 3.9566667e+00   4.2307812e+01
 3.9621333e+00   4.2474279e+01
 3.9676000e+00   4.2283408e+01
 3.9730667e+00   4.2411994e+01
 3.9785333e+00   4.2523848e+01
 3.9840000e+00   4.2644961e+01
 3.9894667e+00   4.2713057e+01
 3.9949333e+00   4.2912234e+01
 4.0004000e+00   4.2980075e+01
 4.0058667e+00   4.3412341e+01
 4.0113333e+00   4.3087306e+01
 4.0168000e+00   4.3689518e+01
 4.0222667e+00   4.3418497e+01
 4.0277333e+00   4.3658228e+01
 4.0332000e+00   4.3894013e+01
 4.0386667e+00   4.3952929e+01
 4.0441333e+00   4.5124667e+01
 4.0496000e+00   4.4074068e+01
 4.0550667e+00   4.4600920e+01
 4.0605333e+00   4.4516096e+01
 4.0660000e+00   4.4873884e+01
 4.0714667e+00   4.5959721e+01
 4.0769333e+00   4.6349836e+01
 4.0824000e+00   4.5734926e+01
 4.0878667e+00   4.6930108e+01
 4.0933333e+00   4.6197326e+01
 4.0988000e+00   4.7160306e+01
 4.1042667e+00   4.6687932e+01
 4.1097333e+00   4.7301597e+01
 4.1152000e+00   4.7319256e+01
 4.1206667e+00   4.7184919e+01
 4.1261333e+00   4.7120844e+01
 4.1316000e+00   4.7414071e+01
 4.1370667e+00   4.7042402e+01
 4.1425333e+00   4.7255249e+01
 4.1480000e+00   4.7167780e+01
 4.1534667e+00   4.7311230e+01
 4.1589333e+00   4.7260004e+01
 4.1644000e+00   4.7583083e+01
 4.1698667e+00   4.7207755e+01
 4.1753333e+00   4.7483984e+01
 4.1808000e+00   4.7366402e+01
 4.1862667e+00   4.7437206e+01
 4.1917333e+00   4.7449545e+01
 4.1972000e+00   4.7678714e+01
 4.2026667e+00   4.7597624e+01
 4.2081333e+00   4.7721514e+01
 4.2136000e+00   4.8024402e+01
 4.2190667e+00   4.7879063e+01
 4.2245333e+00   4.8124957e+01
 4.2300000e+00   4.8496040e+01
 4.2354667e+00   4.8221286e+01
 4.2409333e+00   4.8664259e+01
 4.2464000e+00   4.8689790e+01
 4.2518667e+00   4.8746463e+01
 4.2573333e+00   4.9011604e+01
 4.2628000e+00   4.9274443e+01
 4.2682667e+00   4.9292487e+01
 4.2737333e+00   4.9701191e+01
 4.2792000e+00   4.9674023e+01
 4.2846667e+00   5.0152642e+01
 4.2901333e+00   5.0156106e+01
 4.2956000e+00   5.0458411e+01
 4.3010667e+00   5.0714525e+01
 4.3065333e+00   5.0827895e+01
 4.3120000e+00   5.1166575e+01
 4.3174667e+00   5.1299019e+01
 4.3229333e+00   5.1580961e+01
 4.3284000e+00   5.1938688e+01
 4.3338667e+00   5.1930614e+01
 4.3393333e+00   5.2359164e+01
 4.3448000e+00   5.2653508e+01
 4.3502667e+00   5.2900831e+01
 4.3557333e+00   5.3403884e+01
 4.3612000e+00   5.3509474e+01
 4.3666667e+00   5.3946768e+01
 4.3721333e+00   5.4299317e+01
 4.3776000e+00   5.4605503e+01
 4.3830667e+00   5.5279320e+01
 4.3885333e+00   5.5627568e+01
 4.3940000e+00   5.6488227e+01
 4.3994667e+00   5.7069150e+01
 4.4049333e+00   5.7677373e+01
 4.4104000e+00   5.8186086e+01
 4.4158667e+00   5.8919603e+01
 4.4213333e+00   5.9575016e+01
 4.4268000e+00   6.0060102e+01
 4.4322667e+00   6.0811340e+01
 4.4377333e+00   6.1599232e+01
 4.4432000e+00   6.2613060e+01
 4.4486667e+00   6.3959661e+01
 4.4541333e+00   6.5785986e+01
 4.4596000e+00   6.9258582e+01
 4.4650667e+00   7.6655377e+01
 4.4705333e+00   8.7877265e+01
 4.4760000e+00   1.0317191e+02
 4.4814667e+00   1.2037475e+02
 4.4869333e+00   1.4569428e+02
 4.4924000e+00   1.9025077e+02
 4.4978667e+00   2.5923261e+02
 4.5033333e+00   3.4339520e+02
 4.5088000e+00   3.9161119e+02
 4.5142667e+00   4.7830829e+02
 4.5197333e+00   4.1542583e+02
 4.5252000e+00   3.2921047e+02
 4.5306667e+00   2.7265070e+02
 4.5361333e+00   2.3007830e+02
 4.5416000e+00   1.8345920e+02
 4.5470667e+00   1.5137529e+02
 4.5525333e+00   1.6144914e+02
 4.5580000e+00   1.0166505e+02
 4.5634667e+00   9.6486838e+01
 4.5689333e+00   7.5966913e+01
 4.5744000e+00   7.0729374e+01
 4.5798667e+00   6.6835656e+01
 4.5853333e+00   6.5064357e+01
 4.5908000e+00   6.4009275e+01
 4.5962667e+00   6.3221426e+01
 4.6017333e+00   6.2499770e+01
 4.6072000e+00   6.2312357e+01
 4.6126667e+00   6.1874054e+01
 4.6181333e+00   6.2209879e+01
 4.6236000e+00   6.2080983e+01
 4.6290667e+00   6.2093485e+01
 4.6345333e+00   6.2818096e+01
 4.6400000e+00   6.3001986e+01
 4.6454667e+00   6.3842138e+01
 4.6509333e+00   6.4243812e+01
 4.6564000e+00   6.4531552e+01
 4.6618667e+00   6.4388858e+01
 4.6673333e+00   6.3955837e+01
 4.6728000e+00   6.3625902e+01
 4.6782667e+00   6.3288137e+01
 4.6837333e+00   6.2830405e+01
 4.6892000e+00   6.2424382e+01
 4.6946667e+00   6.2110165e+01
 4.7001333e+00   6.1652634e+01
 4.7056000e+00   6.1334083e+01
 4.7110667e+00   6.1053763e+01
 4.7165333e+00   6.1080351e+01
 4.7220000e+00   6.0720349e+01
 4.7274667e+00   6.1010796e+01
 4.7329333e+00   6.0387583e+01
 4.7384000e+00   6.0337098e+01
 4.7438667e+00   5.9833825e+01
 4.7493333e+00   6.0287060e+01
 4.7548000e+00   5.9800875e+01
 4.7602667e+00   5.9245375e+01
 4.7657333e+00   6.0691986e+01
 4.7712000e+00   5.9934358e+01
 4.7766667e+00   6.0089347e+01
 4.7821333e+00   5.9476854e+01
 4.7876000e+00   5.9585876e+01
 4.7930667e+00   5.8912914e+01
 4.7985333e+00   5.9845308e+01
 4.8040000e+00   5.9395223e+01
 4.8094667e+00   6.0149456e+01
 4.8149333e+00   6.0101244e+01
 4.8204000e+00   6.0636107e+01
 4.8258667e+00   6.0707859e+01
 4.8313333e+00   6.0889428e+01
 4.8368000e+00   6.1442489e+01
 4.8422667e+00   6.1246620e+01
 4.8477333e+00   6.2373663e+01
 4.8532000e+00   6.2035523e+01
 4.8586667e+00   6.3198861e+01
 4.8641333e+00   6.2829195e+01
 4.8696000e+00   6.4932644e+01
 4.8750667e+00   6.3283920e+01
 4.8805333e+00   6.6134088e+01
 4.8860000e+00   6.5076336e+01
 4.8914667e+00   6.8028792e+01
 4.8969333e+00   6.8303504e+01
 4.9024000e+00   7.2650191e+01
 4.9078667e+00   7.4792287e+01
 4.9133333e+00   8.4237553e+01
 4.9188000e+00   9.4271777e+01
 4.9242667e+00   1.2399980e+02
 4.9297333e+00   1.4502098e+02
 4.9352000e+00   1.6022649e+02
 4.9406667e+00   2.9171429e+02
 4.9461333e+00   2.1513211e+02
 4.9516000e+00   4.4121226e+02
 4.9570667e+00   3.1617376e+02
 4.9625333e+00   5.2091724e+02
 4.9680000e+00   4.2204437e+02
 4.9734667e+00   4.4045613e+02
 4.9789333e+00   4.7923387e+02
 4.9844000e+00   4.0894218e+02
 4.9898667e+00   4.8412780e+02
 4.9953333e+00   3.6170398e+02
 5.0008000e+00   2.8397351e+02
 5.0062667e+00   2.4238240e+02
 5.0117333e+00   1.7245839e+02
 5.0172000e+00   1.5655859e+02
 5.0226667e+00   1.0920285e+02
 5.0281333e+00   9.5344728e+01
 5.0336000e+00   8.2934931e+01
 5.0390667e+00   7.4709442e+01
 5.0445333e+00   7.2716285e+01
 5.0500000e+00   6.9125495e+01
 5.0554667e+00   6.8331463e+01
 5.0609333e+00   6.6665183e+01
 5.0664000e+00   6.5534127e+01
 5.0718667e+00   6.4972737e+01
 5.0773333e+00   6.3713431e+01
 5.0828000e+00   6.2898673e+01
 5.0882667e+00   6.2174468e+01
 5.0937333e+00   6.1810682e+01
 5.0992000e+00   6.0659096e+01
 5.1046667e+00   6.0159476e+01
 5.1101333e+00   5.9655702e+01
 5.1156000e+00   5.9024772e+01
 5.1210667e+00   5.8179981e+01
 5.1265333e+00   5.8159437e+01
 5.1320000e+00   5.7157108e+01
 5.1374667e+00   5.7411417e+01
 5.1429333e+00   5.6363750e+01
 5.1484000e+00   5.6582838e+01
 5.1538667e+00   5.6136765e+01
 5.1593333e+00   5.5712914e+01
 5.1648000e+00   5.5862752e+01
 5.1702667e+00   5.5061997e+01
 5.1757333e+00   5.5032493e+01
 5.1812000e+00   5.4507794e+01
 5.1866667e+00   5.4354228e+01
 5.1921333e+00   5.4200788e+01
 5.1976000e+00   5.3860128e+01
 5.2030667e+00   5.3539676e+01
 5.2085333e+00   5.3809751e+01
 5.2140000e+00   5.2875296e+01
 5.2194667e+00   5.3383116e+01
 5.2249333e+00   5.2687729e+01
 5.2304000e+00   5.2637745e+01
 5.2358667e+00   5.1988890e+01
 5.2413333e+00   5.2113988e+01
 5.2468000e+00   5.1612173e+01
 5.2522667e+00   5.1507210e+01
 5.2577333e+00   5.1388165e+01
 5.2632000e+00   5.1136105e+01
 5.2686667e+00   5.1094808e+01
 5.2741333e+00   5.1079084e+01
 5.2796000e+00   5.0632661e+01
 5.2850667e+00   5.0637340e+01
 5.2905333e+00   5.0635235e+01
 5.2960000e+00   5.0235949e+01
 5.3014667e+00   5.0188050e+01
 5.3069333e+00   5.0082337e+01
 5.3124000e+00   4.9938696e+01
 5.3178667e+00   4.9611479e+01
 5.3233333e+00   4.9829471e+01
 5.3288000e+00   4.9422171e+01
 5.3342667e+00   4.9594464e+01
 5.3397333e+00   4.9223076e+01
 5.3452000e+00   4.9344785e+01
 5.3506667e+00   4.9133494e+01
 5.3561333e+00   4.9171430e+01
 5.3616000e+00   4.8724782e+01
 5.3670667e+00   4.8843240e+01
 5.3725333e+00   4.8524641e+01
 5.3780000e+00   4.8739234e+01
 5.3834667e+00   4.8428528e+01
 5.3889333e+00   4.8457902e+01
 5.3944000e+00   4.8004627e+01
 5.3998667e+00   4.8085788e+01
 5.4053333e+00   4.7980540e+01
 5.4108000e+00   4.7711997e+01
 5.4162667e+00   4.7408565e+01
 5.4217333e+00   4.7433882e+01
 5.4272000e+00   4.7299159e+01
 5.4326667e+00   4.7267118e+01
 5.4381333e+00   4.6987596e+01
 5.4436000e+00   4.7096301e+01
 5.4490667e+00   4.6803792e+01
 5.4545333e+00   4.6964904e+01
 5.4600000e+00   4.6785432e+01
 5.4654667e+00   4.6605734e+01
 5.4709333e+00   4.6788851e+01
 5.4764000e+00   4.6454747e+01
 5.4818667e+00   4.6691937e+01
 5.4873333e+00   4.6712768e+01
 5.4928000e+00   4.6382793e+01
 5.4982667e+00   4.6671085e+01
 5.5037333e+00   4.6443078e+01
 5.5092000e+00   4.6420740e+01
 5.5146667e+00   4.6476531e+01
 5.5201333e+00   4.6182155e+01
 5.5256000e+00   4.6415386e+01
 5.5310667e+00   4.6199742e+01
 5.5365333e+00   4.6361921e+01
 5.5420000e+00   4.6407468e+01
 5.5474667e+00   4.6295787e+01
 5.5529333e+00   4.6348564e+01
 5.5584000e+00   4.6149435e+01
 5.5638667e+00   4.6297346e+01
 5.5693333e+00   4.6422556e+01
 5.5748000e+00   4.7055133e+01
 5.5802667e+00   4.5970376e+01
 5.5857333e+00   4.6584948e+01
 5.5912000e+00   4.6053352e+01
 5.5966667e+00   4.6326410e+01
 5.6021333e+00   4.6099787e+01
 5.6076000e+00   4.6505775e+01
 5.6130667e+00   4.6223338e+01
 5.6185333e+00   4.6519178e+01
 5.6240000e+00   4.6402336e+01
 5.6294667e+00   4.6596255e+01
 5.6349333e+00   4.6531390e+01
 5.6404000e+00   4.6666062e+01
 5.6458667e+00   4.6932290e+01
 5.6513333e+00   4.6863845e+01
 5.6568000e+00   4.7609336e+01
 5.6622667e+00   4.7698908e+01
 5.6677333e+00   5.1067131e+01
 5.6732000e+00   5.0299684e+01
 5.6786667e+00   6.3230372e+01
 5.6841333e+00   7.2578400e+01
 5.6896000e+00   7.0692478e+01
 5.6950667e+00   8.4291062e+01
 5.7005333e+00   1.2097588e+02
 5.7060000e+00   1.1291365e+02
 5.7114667e+00   1.4403891e+02
 5.7169333e+00   1.4136751e+02
 5.7224000e+00   1.6138261e+02
 5.7278667e+00   1.4048013e+02
 5.7333333e+00   1.9634511e+02
 5.7388000e+00   1.4386159e+02
 5.7442667e+00   1.9898833e+02
 5.7497333e+00   1.6734364e+02
 5.7552000e+00   1.6119404e+02
 5.7606667e+00   1.6143745e+02
 5.7661333e+00   1.5464576e+02
 5.7716000e+00   1.1933169e+02
 5.7770667e+00   1.2878882e+02
 5.7825333e+00   8.0613787e+01
 5.7880000e+00   8.9547014e+01
 5.7934667e+00   6.5819334e+01
 5.7989333e+00   5.9904566e+01
 5.8044000e+00   5.1952454e+01
 5.8098667e+00   4.9964441e+01
 5.8153333e+00   4.7294830e+01
 5.8208000e+00   4.7006314e+01
 5.8262667e+00   4.5924115e+01
 5.8317333e+00   4.5914595e+01
 5.8372000e+00   4.5218807e+01
 5.8426667e+00   4.5434482e+01
 5.8481333e+00   4.4705604e+01
 5.8536000e+00   4.4789724e+01
 5.8590667e+00   4.4317369e+01
 5.8645333e+00   4.4273802e+01
 5.8700000e+00   4.3695118e+01
 5.8754667e+00   4.3647161e+01
 5.8809333e+00   4.3310468e+01
 5.8864000e+00   4.3242946e+01
 5.8918667e+00   4.2708559e+01
 5.8973333e+00   4.3006297e+01
 5.9028000e+00   4.2689973e+01
 5.9082667e+00   4.2607571e+01
 5.9137333e+00   4.2443462e+01
 5.9192000e+00   4.2189949e+01
 5.9246667e+00   4.1989261e+01
 5.9301333e+00   4.1840758e+01
 5.9356000e+00   4.1567960e+01
 5.9410667e+00   4.1637596e+01
 5.9465333e+00   4.1445347e+01
 5.9520000e+00   4.1339157e+01
 5.9574667e+00   4.1546359e+01
 5.9629333e+00   4.1355909e+01
 5.9684000e+00   4.1342220e+01
 5.9738667e+00   4.1255937e+01
 5.9793333e+00   4.1149161e+01
 5.9848000e+00   4.1155912e+01
 5.9902667e+00   4.1096418e+01
 5.9957333e+00   4.1223079e+01
 6.0012000e+00   4.1101884e+01
 6.0066667e+00   4.1173432e+01
 6.0121333e+00   4.1207398e+01
 6.0176000e+00   4.1193998e+01
 6.0230667e+00   4.1178355e+01
 6.0285333e+00   4.1076560e+01
 6.0340000e+00   4.0880824e+01
 6.0394667e+00   4.0946463e+01
 6.0449333e+00   4.1033728e+01
 6.0504000e+00   4.1020741e+01
 6.0558667e+00   4.1032210e+01
 6.0613333e+00   4.0966148e+01
 6.0668000e+00   4.1162676e+01
 6.0722667e+00   4.0882482e+01
 6.0777333e+00   4.0866136e+01
 6.0832000e+00   4.0784348e+01
 6.0886667e+00   4.0806556e+01
 6.0941333e+00   4.0679155e+01
 6.0996000e+00   4.0772032e+01
 6.1050667e+00   4.0686302e+01
 6.1105333e+00   4.0896486e+01
 6.1160000e+00   4.0759053e+01
 6.1214667e+00   4.0703435e+01
 6.1269333e+00   4.0655074e+01
 6.1324000e+00   4.0634371e+01
 6.1378667e+00   4.0376475e+01
 6.1433333e+00   4.0479583e+01
 6.1488000e+00   4.0316562e+01
 6.1542667e+00   4.0178458e+01
 6.1597333e+00   4.0265383e+01
 6.1652000e+00   4.0028789e+01
 6.1706667e+00   4.0236047e+01
 6.1761333e+00   3.9945446e+01
 6.1816000e+00   4.0073492e+01
 6.1870667e+00   3.9981142e+01
 6.1925333e+00   4.0199643e+01
 6.1980000e+00   4.0074964e+01
 6.2034667e+00   4.0173855e+01
 6.2089333e+00   4.0109019e+01
 6.2144000e+00   4.0179340e+01
 6.2198667e+00   4.0093060e+01
 6.2253333e+00   4.0193195e+01
 6.2308000e+00   3.9918141e+01
 6.2362667e+00   4.0247719e+01
 6.2417333e+00   4.0146281e+01
 6.2472000e+00   4.0153451e+01
 6.2526667e+00   4.0198299e+01
 6.2581333e+00   4.0206462e+01
 6.2636000e+00   4.0354494e+01
 6.2690667e+00   3.9990879e+01
 6.2745333e+00   4.0322189e+01
 6.2800000e+00   3.9908553e+01
 6.2854667e+00   4.0456945e+01
 6.2909333e+00   4.0054409e+01
 6.2964000e+00   4.0443761e+01
 6.3018667e+00   4.0365830e+01
 6.3073333e+00   4.0526778e+01
 6.3128000e+00   4.0525742e+01
 6.3182667e+00   4.0786933e+01
 6.3237333e+00   4.0628904e+01
 6.3292000e+00   4.1182580e+01
 6.3346667e+00   4.1360575e+01
 6.3401333e+00   4.2569830e+01
 6.3456000e+00   4.4176303e+01
 6.3510667e+00   4.8348967e+01
 6.3565333e+00   5.3616235e+01
 6.3620000e+00   6.4160896e+01
 6.3674667e+00   7.4869128e+01
 6.3729333e+00   9.2478454e+01
 6.3784000e+00   8.1590012e+01
 6.3838667e+00   9.4830826e+01
 6.3893333e+00   7.6495435e+01
 6.3948000e+00   7.4748053e+01
 6.4002667e+00   6.5876861e+01
 6.4057333e+00   6.1741269e+01
 6.4112000e+00   5.7961386e+01
 6.4166667e+00   6.1190565e+01
 6.4221333e+00   5.4233486e+01
 6.4276000e+00   5.1030845e+01
 6.4330667e+00   4.7139531e+01
 6.4385333e+00   4.3253800e+01
 6.4440000e+00   4.1830407e+01
 6.4494667e+00   4.0882873e+01
 6.4549333e+00   4.0685042e+01
 6.4604000e+00   4.0106371e+01
 6.4658667e+00   4.0287721e+01
 6.4713333e+00   4.0033850e+01
 6.4768000e+00   3.9893585e+01
 6.4822667e+00   4.0133324e+01
 6.4877333e+00   3.9718050e+01
 6.4932000e+00   3.9891423e+01
 6.4986667e+00   3.9726953e+01
 6.5041333e+00   3.9725179e+01
 6.5096000e+00   3.9435375e+01
 6.5150667e+00   3.9699998e+01
 6.5205333e+00   3.9347641e+01
 6.5260000e+00   3.9767367e+01
 6.5314667e+00   3.9182657e+01
 6.5369333e+00   3.9657701e+01
 6.5424000e+00   3.9261724e+01
 6.5478667e+00   3.9263638e+01
 6.5533333e+00   3.9198461e+01
 6.5588000e+00   3.9159632e+01
 6.5642667e+00   3.9243592e+01
 6.5697333e+00   3.9057481e+01
 6.5752000e+00   3.9441344e+01
 6.5806667e+00   3.9028923e+01
 6.5861333e+00   3.9236099e+01
 6.5916000e+00   3.9094213e+01
 6.5970667e+00   3.9176058e+01
 6.6025333e+00   3.8885697e+01
 6.6080000e+00   3.9205778e+01
 6.6134667e+00   3.8873387e+01
 6.6189333e+00   3.9300896e+01
 6.6244000e+00   3.9006899e+01
 6.6298667e+00   3.9432633e+01
 6.6353333e+00   3.9303307e+01
 6.6408000e+00   3.9304924e+01
 6.6462667e+00   3.9368504e+01
 6.6517333e+00   3.9259184e+01
 6.6572000e+00   3.9198285e+01
 6.6626667e+00   3.9330074e+01
 6.6681333e+00   3.9117126e+01
 6.6736000e+00   3.9213342e+01
 6.6790667e+00   3.9378183e+01
 6.6845333e+00   3.9011804e+01
 6.6900000e+00   3.9384385e+01
 6.6954667e+00   3.9353540e+01
 6.7009333e+00   3.9298146e+01
 6.7064000e+00   3.9247483e+01
 6.7118667e+00   3.9446375e+01
 6.7173333e+00   3.9237132e+01
 6.7228000e+00   3.9675867e+01
 6.7282667e+00   3.9088619e+01
 6.7337333e+00   3.9672849e+01
 6.7392000e+00   3.9192569e+01
 6.7446667e+00   3.9413816e+01
 6.7501333e+00   3.9256320e+01
 6.7556000e+00   3.9629696e+01
 6.7610667e+00   3.9217334e+01
 6.7665333e+00   3.9493196e+01
 6.7720000e+00   3.9504090e+01
 6.7774667e+00   3.9575027e+01
 6.7829333e+00   3.9547032e+01
 6.7884000e+00   3.9813308e+01
 6.7938667e+00   3.9481104e+01
 6.7993333e+00   3.9797313e+01
 6.8048000e+00   3.9688182e+01
 6.8102667e+00   3.9743047e+01
 6.8157333e+00   3.9828130e+01
 6.8212000e+00   3.9674884e+01
 6.8266667e+00   3.9928346e+01
 6.8321333e+00   3.9584773e+01
 6.8376000e+00   4.0085320e+01
 6.8430667e+00   3.9635087e+01
 6.8485333e+00   3.9936341e+01
 6.8540000e+00   3.9714075e+01
 6.8594667e+00   4.0000740e+01
 6.8649333e+00   3.9901437e+01
 6.8704000e+00   3.9846821e+01
 6.8758667e+00   3.9826772e+01
 6.8813333e+00   3.9972261e+01
 6.8868000e+00   3.9671968e+01
 6.8922667e+00   4.0162367e+01
 6.8977333e+00   3.9726975e+01
 6.9032000e+00   3.9825318e+01
 6.9086667e+00   4.0056932e+01
 6.9141333e+00   3.9791742e+01
 6.9196000e+00   3.9858180e+01
 6.9250667e+00   4.0085188e+01
 6.9305333e+00   3.9932396e+01
 6.9360000e+00   4.0095687e+01
 6.9414667e+00   4.0321241e+01
 6.9469333e+00   4.0161870e+01
 6.9524000e+00   4.0299093e+01
 6.9578667e+00   4.0457578e+01
 6.9633333e+00   4.0335931e+01
 6.9688000e+00   4.0571600e+01
 6.9742667e+00   4.0609868e+01
 6.9797333e+00   4.0557481e+01
 6.9852000e+00   4.0623074e+01
 6.9906667e+00   4.0683555e+01
 6.9961333e+00   4.0772027e+01
 7.0016000e+00   4.0804946e+01
 7.0070667e+00   4.0918191e+01
 7.0125333e+00   4.0967692e+01
 7.0180000e+00   4.1069698e+01
 7.0234667e+00   4.1160002e+01
 7.0289333e+00   4.0867204e+01
 7.0344000e+00   4.1110268e+01
 7.0398667e+00   4.1106257e+01
 7.0453333e+00   4.0896744e+01
 7.0508000e+00   4.1217944e+01
 7.0562667e+00   4.0949057e+01
 7.0617333e+00   4.1360012e+01
 7.0672000e+00   4.1104967e+01
 7.0726667e+00   4.1513429e+01
 7.0781333e+00   4.1305289e+01
 7.0836000e+00   4.1714390e+01
 7.0890667e+00   4.1449572e+01
 7.0945333e+00   4.2139844e+01
 7.1000000e+00   4.1857989e+01
 7.1054667e+00   4.2330564e+01
 7.1109333e+00   4.2185527e+01
 7.1164000e+00   4.2515199e+01
 7.1218667e+00   4.2460213e+01
 7.1273333e+00   4.2691873e+01
 7.1328000e+00   4.2247902e+01
 7.1382667e+00   4.2725768e+01
 7.1437333e+00   4.2465962e+01
 7.1492000e+00   4.2467834e+01
 7.1546667e+00   4.2712467e+01
 7.1601333e+00   4.2720935e+01
 7.1656000e+00   4.2606098e+01
 7.1710667e+00   4.2684328e+01
 7.1765333e+00   4.3052368e+01
 7.1820000e+00   4.2763463e+01
 7.1874667e+00   4.3064657e+01
 7.1929333e+00   4.2983082e+01
 7.1984000e+00   4.3146564e+01
 7.2038667e+00   4.2787056e+01
 7.2093333e+00   4.3100541e+01
 7.2148000e+00   4.2757695e+01
 7.2202667e+00   4.3306430e+01
 7.2257333e+00   4.2636754e+01
 7.2312000e+00   4.3238313e+01
 7.2366667e+00   4.2945566e+01
 7.2421333e+00   4.3256934e+01
 7.2476000e+00   4.2829250e+01
 7.2530667e+00   4.3342735e+01
 7.2585333e+00   4.3026682e+01
 7.2640000e+00   4.3263932e+01
 7.2694667e+00   4.3324916e+01
 7.2749333e+00   4.2994873e+01
 7.2804000e+00   4.3511840e+01
 7.2858667e+00   4.3560459e+01
 7.2913333e+00   4.3403036e+01
 7.2968000e+00   4.3626637e+01
 7.3022667e+00   4.3929665e+01
 7.3077333e+00   4.3286863e+01
 7.3132000e+00   4.3992714e+01
 7.3186667e+00   4.3490451e+01
 7.3241333e+00   4.3987062e+01
 7.3296000e+00   4.3818331e+01
 7.3350667e+00   4.4104560e+01
 7.3405333e+00   4.4094162e+01
 7.3460000e+00   4.4289784e+01
 7.3514667e+00   4.3970622e+01
 7.3569333e+00   4.4482658e+01
 7.3624000e+00   4.4028621e+01
 7.3678667e+00   4.4415986e+01
 7.3733333e+00   4.4580920e+01
 7.3788000e+00   4.4283535e+01
 7.3842667e+00   4.4740783e+01
 7.3897333e+00   4.4561016e+01
 7.3952000e+00   4.4780081e+01
 7.4006667e+00   4.4899086e+01
 7.4061333e+00   4.5148008e+01
 7.4116000e+00   4.4752859e+01
 7.4170667e+00   4.5425033e+01
 7.4225333e+00   4.4861195e+01
 7.4280000e+00   4.5350669e+01
 7.4334667e+00   4.4860892e+01
 7.4389333e+00   4.5771415e+01
 7.4444000e+00   4.5273427e+01
 7.4498667e+00   4.5809868e+01
 7.4553333e+00   4.5702691e+01
 7.4608000e+00   4.6136771e+01
 7.4662667e+00   4.5849037e+01
 7.4717333e+00   4.6188883e+01
 7.4772000e+00   4.6064470e+01
 7.4826667e+00   4.6129033e+01
 7.4881333e+00   4.6114378e+01
 7.4936000e+00   4.6305347e+01
 7.4990667e+00   4.6421809e+01
 7.5045333e+00   4.6475293e+01
 7.5100000e+00   4.6700905e+01
 7.5154667e+00   4.6608914e+01
 7.5209333e+00   4.6920540e+01
 7.5264000e+00   4.6733516e+01
 7.5318667e+00   4.7250939e+01
 7.5373333e+00   4.6668717e+01
 7.5428000e+00   4.7366143e+01
 7.5482667e+00   4.6780983e+01
 7.5537333e+00   4.7578015e+01
 7.5592000e+00   4.7180254e+01
 7.5646667e+00   4.7667891e+01
 7.5701333e+00   4.7335707e+01
 7.5756000e+00   4.7893499e+01
 7.5810667e+00   4.7419017e+01
 7.5865333e+00   4.7982272e+01
 7.5920000e+00   4.7803216e+01
 7.5974667e+00   4.7922997e+01
 7.6029333e+00   4.7986652e+01
 7.6084000e+00   4.8386455e+01
 7.6138667e+00   4.8095386e+01
 7.6193333e+00   4.8543727e+01
 7.6248000e+00   4.8677690e+01
 7.6302667e+00   4.8311975e+01
 7.6357333e+00   4.8690466e+01
 7.6412000e+00   4.8667645e+01
 7.6466667e+00   4.8924042e+01
 7.6521333e+00   4.8766481e+01
 7.6576000e+00   4.9368192e+01
 7.6630667e+00   4.9175468e+01
 7.6685333e+00   4.9329472e+01
 7.6740000e+00   4.9803208e+01
 7.6794667e+00   4.9783210e+01
 7.6849333e+00   5.0056001e+01
 7.6904000e+00   5.0252734e+01
 7.6958667e+00   5.0153878e+01
 7.7013333e+00   5.0678034e+01
 7.7068000e+00   5.0407100e+01
 7.7122667e+00   5.0754712e+01
 7.7177333e+00   5.1155876e+01
 7.7232000e+00   5.0794129e+01
 7.7286667e+00   5.1598686e+01
 7.7341333e+00   5.1528164e+01
 7.7396000e+00   5.1844290e+01
 7.7450667e+00   5.2096631e+01
 7.7505333e+00   5.2500725e+01
 7.7560000e+00   5.2569937e+01
 7.7614667e+00   5.3367587e+01
 7.7669333e+00   5.3671377e+01
 7.7724000e+00   5.4757538e+01
 7.7778667e+00   5.5983504e+01
 7.7833333e+00   5.8776937e+01
 7.7888000e+00   6.2384010e+01
 7.7942667e+00   7.0717236e+01
 7.7997333e+00   7.9906088e+01
 7.8052000e+00   9.7376923e+01
 7.8106667e+00   9.7188717e+01
 7.8161333e+00   1.1087131e+02
 7.8216000e+00   1.1724847e+02
 7.8270667e+00   1.0729511e+02
 7.8325333e+00   1.1345614e+02
 7.8380000e+00   1.1423222e+02
 7.8434667e+00   1.1484708e+02
 7.8489333e+00   9.8387090e+01
 7.8544000e+00   1.0641868e+02
 7.8598667e+00   9.7417876e+01
 7.8653333e+00   8.3204099e+01
 7.8708000e+00   7.4722734e+01
 7.8762667e+00   6.5357938e+01
 7.8817333e+00   5.9778453e+01
 7.8872000e+00   5.7540745e+01
 7.8926667e+00   5.5955768e+01
 7.8981333e+00   5.5484440e+01
 7.9036000e+00   5.4874105e+01
 7.9090667e+00   5.4815391e+01
 7.9145333e+00   5.4446003e+01
 7.9200000e+00   5.4642521e+01
 7.9254667e+00   5.4024679e+01
 7.9309333e+00   5.4234024e+01
 7.9364000e+00   5.4237886e+01
 7.9418667e+00   5.3630289e+01
 7.9473333e+00   5.3973906e+01
 7.9528000e+00   5.3640529e+01
 7.9582667e+00   5.3546136e+01
 7.9637333e+00   5.3459843e+01
 7.9692000e+00   5.3439870e+01
 7.9746667e+00   5.3181798e+01
 7.9801333e+00   5.3366958e+01
 7.9856000e+00   5.3173627e+01
 7.9910667e+00   5.3297237e+01
 7.9965333e+00   5.3487325e+01
 8.0020000e+00   5.3260034e+01
 8.0074667e+00   5.3408484e+01
 8.0129333e+00   5.3411191e+01
 8.0184000e+00   5.3781082e+01
 8.0238667e+00   5.3702330e+01
 8.0293333e+00   5.4178620e+01
 8.0348000e+00   5.3957195e+01
 8.0402667e+00   5.4562484e+01
 8.0457333e+00   5.4879585e+01
 8.0512000e+00   5.5315066e+01
 8.0566667e+00   5.8877965e+01
 8.0621333e+00   5.8657603e+01
 8.0676000e+00   7.3690351e+01
 8.0730667e+00   6.6175065e+01
 8.0785333e+00   8.2508083e+01
 8.0840000e+00   7.0287678e+01
 8.0894667e+00   9.1125599e+01
 8.0949333e+00   7.6661839e+01
 8.1004000e+00   1.1909608e+02
 8.1058667e+00   1.1076452e+02
 8.1113333e+00   1.4526164e+02
 8.1168000e+00   1.3579725e+02
 8.1222667e+00   1.3743856e+02
 8.1277333e+00   1.2203391e+02
 8.1332000e+00   1.3004996e+02
 8.1386667e+00   1.0800905e+02
 8.1441333e+00   1.1169488e+02
 8.1496000e+00   9.9979740e+01
 8.1550667e+00   1.0085660e+02
 8.1605333e+00   9.0774888e+01
 8.1660000e+00   8.4812826e+01
 8.1714667e+00   9.2191491e+01
 8.1769333e+00   8.1959048e+01
 8.1824000e+00   7.7566352e+01
 8.1878667e+00   6.8826100e+01
 8.1933333e+00   6.1891574e+01
 8.1988000e+00   5.7036796e+01
 8.2042667e+00   5.5440990e+01
 8.2097333e+00   5.4475551e+01
 8.2152000e+00   5.4053296e+01
 8.2206667e+00   5.3817253e+01
 8.2261333e+00   5.3701537e+01
 8.2316000e+00   5.3352963e+01
 8.2370667e+00   5.3373314e+01
 8.2425333e+00   5.2774100e+01
 8.2480000e+00   5.2943030e+01
 8.2534667e+00   5.2359517e+01
 8.2589333e+00   5.2776023e+01
 8.2644000e+00   5.2291606e+01
 8.2698667e+00   5.2534578e+01
 8.2753333e+00   5.1918746e+01
 8.2808000e+00   5.2364254e+01
 8.2862667e+00   5.1781607e+01
 8.2917333e+00   5.2016061e+01
 8.2972000e+00   5.1703082e+01
 8.3026667e+00   5.1794705e+01
 8.3081333e+00   5.1505148e+01
 8.3136000e+00   5.1742415e+01
 8.3190667e+00   5.1370203e+01
 8.3245333e+00   5.1363201e+01
 8.3300000e+00   5.1334807e+01
 8.3354667e+00   5.1156807e+01
 8.3409333e+00   5.1214397e+01
 8.3464000e+00   5.0955669e+01
 8.3518667e+00   5.0995792e+01
 8.3573333e+00   5.0803976e+01
 8.3628000e+00   5.1305332e+01
 8.3682667e+00   5.0612526e+01
 8.3737333e+00   5.1096326e+01
 8.3792000e+00   5.0683835e+01
 8.3846667e+00   5.1094619e+01
 8.3901333e+00   5.0559525e+01
 8.3956000e+00   5.0957200e+01
 8.4010667e+00   5.0672516e+01
 8.4065333e+00   5.0703050e+01
 8.4120000e+00   5.0780519e+01
 8.4174667e+00   5.0805087e+01
 8.4229333e+00   5.0635500e+01
 8.4284000e+00   5.0704737e+01
 8.4338667e+00   5.0659613e+01
 8.4393333e+00   5.0649920e+01
 8.4448000e+00   5.0739065e+01
 8.4502667e+00   5.0465720e+01
 8.4557333e+00   5.0794791e+01
 8.4612000e+00   5.0500022e+01
 8.4666667e+00   5.0837593e+01
 8.4721333e+00   5.0393656e+01
 8.4776000e+00   5.0826379e+01
 8.4830667e+00   5.0486054e+01
 8.4885333e+00   5.0781788e+01
 8.4940000e+00   5.0312594e+01
 8.4994667e+00   5.0829159e+01
 8.5049333e+00   5.0199735e+01
 8.5104000e+00   5.0520453e+01
 8.5158667e+00   5.0306084e+01
 8.5213333e+00   5.0318870e+01
 8.5268000e+00   4.9988674e+01
 8.5322667e+00   5.0137307e+01
 8.5377333e+00   4.9840508e+01
 8.5432000e+00   5.0048381e+01
 8.5486667e+00   4.9853304e+01
 8.5541333e+00   4.9803608e+01
 8.5596000e+00   4.9913461e+01
 8.5650667e+00   4.9607420e+01
 8.5705333e+00   5.0032155e+01
 8.5760000e+00   4.9492408e+01
 8.5814667e+00   5.0023975e+01
 8.5869333e+00   4.9589423e+01
 8.5924000e+00   4.9794159e+01
 8.5978667e+00   4.9485120e+01
 8.6033333e+00   5.0008200e+01
 8.6088000e+00   4.9562670e+01
 8.6142667e+00   4.9946870e+01
 8.6197333e+00   4.9395058e+01
 8.6252000e+00   4.9828664e+01
 8.6306667e+00   4.9229449e+01
 8.6361333e+00   4.9467490e+01
 8.6416000e+00   4.9168413e+01
 8.6470667e+00   4.9329353e+01
 8.6525333e+00   4.8854975e+01
 8.6580000e+00   4.9140210e+01
 8.6634667e+00   4.8687864e+01
 8.6689333e+00   4.8954503e+01
 8.6744000e+00   4.8620020e+01
 8.6798667e+00   4.8701519e+01
 8.6853333e+00   4.8818482e+01
 8.6908000e+00   4.8338227e+01
 8.6962667e+00   4.8892652e+01
 8.7017333e+00   4.8240486e+01
 8.7072000e+00   4.8889563e+01
 8.7126667e+00   4.8365570e+01
 8.7181333e+00   4.8650616e+01
 8.7236000e+00   4.8180385e+01
 8.7290667e+00   4.8655061e+01
 8.7345333e+00   4.8315437e+01
 8.7400000e+00   4.8561998e+01
 8.7454667e+00   4.8281632e+01
 8.7509333e+00   4.8698323e+01
 8.7564000e+00   4.8227970e+01
 8.7618667e+00   4.8579465e+01
 8.7673333e+00   4.8274165e+01
 8.7728000e+00   4.8484651e+01
 8.7782667e+00   4.8192041e+01
 8.7837333e+00   4.8273829e+01
 8.7892000e+00   4.8237071e+01
 8.7946667e+00   4.7994092e+01
 8.8001333e+00   4.8146712e+01
 8.8056000e+00   4.8105010e+01
 8.8110667e+00   4.8152601e+01
 8.8165333e+00   4.7893315e+01
 8.8220000e+00   4.8089931e+01
 8.8274667e+00   4.7913982e+01
 8.8329333e+00   4.8187206e+01
 8.8384000e+00   4.7622253e+01
 8.8438667e+00   4.8136025e+01
 8.8493333e+00   4.7528405e+01
 8.8548000e+00   4.7990823e+01
 8.8602667e+00   4.7536505e+01
 8.8657333e+00   4.7912378e+01
 8.8712000e+00   4.7620022e+01
 8.8766667e+00   4.7962647e+01
 8.8821333e+00   4.7683892e+01
 8.8876000e+00   4.7921692e+01
 8.8930667e+00   4.7696663e+01
 8.8985333e+00   4.7678912e+01
 8.9040000e+00   4.7746904e+01
 8.9094667e+00   4.7706958e+01
 8.9149333e+00   4.7745126e+01
 8.9204000e+00   4.7580987e+01
 8.9258667e+00   4.7687442e+01
 8.9313333e+00   4.7563081e+01
 8.9368000e+00   4.7736438e+01
 8.9422667e+00   4.7447428e+01
 8.9477333e+00   4.7746634e+01
 8.9532000e+00   4.7590465e+01
 8.9586667e+00   4.7648390e+01
 8.9641333e+00   4.7359287e+01
 8.9696000e+00   4.7671030e+01
 8.9750667e+00   4.7459598e+01
 8.9805333e+00   4.7776451e+01
 8.9860000e+00   4.7491933e+01
 8.9914667e+00   4.8259009e+01
 8.9969333e+00   4.7973264e+01
 9.0024000e+00   4.9370027e+01
 9.0078667e+00   4.9618673e+01
 9.0133333e+00   5.2635640e+01
 9.0188000e+00   5.3080662e+01
 9.0242667e+00   6.3107058e+01
 9.0297333e+00   6.0408263e+01
 9.0352000e+00   6.1719360e+01
 9.0406667e+00   6.5284960e+01
 9.0461333e+00   6.7615585e+01
 9.0516000e+00   6.0970873e+01
 9.0570667e+00   5.3432934e+01
 9.0625333e+00   5.8620485e+01
 9.0680000e+00   5.1438887e+01
 9.0734667e+00   5.0920209e+01
 9.0789333e+00   4.9387815e+01
 9.0844000e+00   4.9374361e+01
 9.0898667e+00   4.7781214e+01
 9.0953333e+00   4.7500005e+01
 9.1008000e+00   4.6571664e+01
 9.1062667e+00   4.6805722e+01
 9.1117333e+00   4.6082559e+01
 9.1172000e+00   4.6252661e+01
 9.1226667e+00   4.5641883e+01
 9.1281333e+00   4.5786974e+01
 9.1336000e+00   4.5604807e+01
 9.1390667e+00   4.5379925e+01
 9.1445333e+00   4.5607785e+01
 9.1500000e+00   4.5315025e+01
 9.1554667e+00   4.5438225e+01
 9.1609333e+00   4.5041766e+01
 9.1664000e+00   4.5252912e+01
 9.1718667e+00   4.5009213e+01
 9.1773333e+00   4.5204500e+01
 9.1828000e+00   4.4669537e+01
 9.1882667e+00   4.5074885e+01
 9.1937333e+00   4.4694565e+01
 9.1992000e+00   4.4749006e+01
 9.2046667e+00   4.4656657e+01
 9.2101333e+00   4.4865377e+01
 9.2156000e+00   4.4482765e+01
 9.2210667e+00   4.4700468e+01
 9.2265333e+00   4.4611233e+01
 9.2320000e+00   4.4647093e+01
 9.2374667e+00   4.4316455e+01
 9.2429333e+00   4.4554760e+01
 9.2484000e+00   4.4418753e+01
 9.2538667e+00   4.4253250e+01
 9.2593333e+00   4.4259285e+01
 9.2648000e+00   4.4282698e+01
 9.2702667e+00   4.4123442e+01
 9.2757333e+00   4.4180561e+01
 9.2812000e+00   4.4209339e+01
 9.2866667e+00   4.3976913e+01
 9.2921333e+00   4.3898967e+01
 9.2976000e+00   4.4074307e+01
 9.3030667e+00   4.3694085e+01
 9.3085333e+00   4.3693381e+01
 9.3140000e+00   4.4089384e+01
 9.3194667e+00   4.3493546e+01
 9.3249333e+00   4.3927739e+01
 9.3304000e+00   4.3698274e+01
 9.3358667e+00   4.3751747e+01
 9.3413333e+00   4.3497789e+01
 9.3468000e+00   4.3683587e+01
 9.3522667e+00   4.3454669e+01
 9.3577333e+00   4.3436535e+01
 9.3632000e+00   4.3567390e+01
 9.3686667e+00   4.3752603e+01
 9.3741333e+00   4.3702887e+01
 9.3796000e+00   4.3663184e+01
 9.3850667e+00   4.3748134e+01
 9.3905333e+00   4.3577787e+01
 9.3960000e+00   4.3774757e+01
 9.4014667e+00   4.3489693e+01
 9.4069333e+00   4.3647234e+01
 9.4124000e+00   4.3710845e+01
 9.4178667e+00   4.3520626e+01
 9.4233333e+00   4.3668223e+01
 9.4288000e+00   4.3956672e+01
 9.4342667e+00   4.3903644e+01
 9.4397333e+00   4.4043079e+01
 9.4452000e+00   4.4117287e+01
 9.4506667e+00   4.4601510e+01
 9.4561333e+00   4.4500825e+01
 9.4616000e+00   4.6204112e+01
 9.4670667e+00   4.5539598e+01
 9.4725333e+00   5.6320426e+01
 9.4780000e+00   5.0742078e+01
 9.4834667e+00   5.8060854e+01
 9.4889333e+00   6.9095774e+01
 9.4944000e+00   6.5643287e+01
 9.4998667e+00   9.2489064e+01
 9.5053333e+00   8.5749979e+01
 9.5108000e+00   9.3733438e+01
 9.5162667e+00   8.1170354e+01
 9.5217333e+00   7.8905941e+01
 9.5272000e+00   7.9156928e+01
 9.5326667e+00   7.6789987e+01
 9.5381333e+00   8.2483752e+01
 9.5436000e+00   7.9334261e+01
 9.5490667e+00   9.1785993e+01
 9.5545333e+00   1.0554382e+02
 9.5600000e+00   1.1092424e+02
 9.5654667e+00   1.0096841e+02
 9.5709333e+00   1.0264127e+02
 9.5764000e+00   9.6052380e+01
 9.5818667e+00   8.4618026e+01
 9.5873333e+00   6.3546722e+01
 9.5928000e+00   5.3732265e+01
 9.5982667e+00   4.9838590e+01
 9.6037333e+00   4.5299738e+01
 9.6092000e+00   4.4381685e+01
 9.6146667e+00   4.3729815e+01
 9.6201333e+00   4.2973069e+01
 9.6256000e+00   4.2875501e+01
 9.6310667e+00   4.2469118e+01
 9.6365333e+00   4.2311646e+01
 9.6420000e+00   4.2065627e+01
 9.6474667e+00   4.2140540e+01
 9.6529333e+00   4.1750806e+01
 9.6584000e+00   4.1848251e+01
 9.6638667e+00   4.1773156e+01
 9.6693333e+00   4.1523834e+01
 9.6748000e+00   4.1547282e+01
 9.6802667e+00   4.1527164e+01
 9.6857333e+00   4.1152247e+01
 9.6912000e+00   4.1348788e+01
 9.6966667e+00   4.1230231e+01
 9.7021333e+00   4.1018128e+01
 9.7076000e+00   4.0903308e+01
 9.7130667e+00   4.0888878e+01
 9.7185333e+00   4.0725923e+01
 9.7240000e+00   4.0727792e+01
 9.7294667e+00   4.0580988e+01
 9.7349333e+00   4.0563847e+01
 9.7404000e+00   4.0412907e+01
 9.7458667e+00   4.0512401e+01
 9.7513333e+00   4.0325521e+01
 9.7568000e+00   4.0266959e+01
 9.7622667e+00   4.0362825e+01
 9.7677333e+00   4.0074621e+01
 9.7732000e+00   3.9967473e+01
 9.7786667e+00   4.0094141e+01
 9.7841333e+00   3.9884309e+01
 9.7896000e+00   3.9895114e+01
 9.7950667e+00   3.9691681e+01
 9.8005333e+00   3.9646766e+01
 9.8060000e+00   3.9962993e+01
 9.8114667e+00   3.9624920e+01
 9.8169333e+00   3.9901075e+01
 9.8224000e+00   4.0001038e+01
 9.8278667e+00   3.9686695e+01
 9.8333333e+00   3.9972321e+01
 9.8388000e+00   3.9986946e+01
 9.8442667e+00   3.9712844e+01
 9.8497333e+00   4.0085359e+01
 9.8552000e+00   3.9842174e+01
 9.8606667e+00   3.9680216e+01
 9.8661333e+00   4.0213707e+01
 9.8716000e+00   3.9860612e+01
 9.8770667e+00   4.0199740e+01
 9.8825333e+00   4.0152961e+01
 9.8880000e+00   4.0557716e+01
 9.8934667e+00   4.0592225e+01
 9.8989333e+00   4.1077648e+01
 9.9044000e+00   4.1384584e+01
 9.9098667e+00   4.2423816e+01
 9.9153333e+00   4.4866151e+01
 9.9208000e+00   4.6361709e+01
 9.9262667e+00   5.0726280e+01
 9.9317333e+00   5.2758658e+01
 9.9372000e+00   6.1388487e+01
 9.9426667e+00   7.1009511e+01
 9.9481333e+00   5.9321949e+01
 9.9536000e+00   8.0713215e+01
 9.9590667e+00   6.3880421e+01
 9.9645333e+00   6.8030738e+01
 9.9700000e+00   6.8556965e+01
 9.9754667e+00   6.2105514e+01
 9.9809333e+00   6.7738525e+01
 9.9864000e+00   6.8448763e+01
 9.9918667e+00   6.1527235e+01
 9.9973333e+00   6.1262316e+01
 1.0002800e+01   4.8877259e+01
 1.0008267e+01   4.4700007e+01
 1.0013733e+01   4.4278037e+01
 1.0019200e+01   4.2445875e+01
 1.0024667e+01   4.1206242e+01
 1.0030133e+01   4.0900616e+01
 1.0035600e+01   4.0897569e+01
 1.0041067e+01   4.0563959e+01
 1.0046533e+01   4.0581790e+01
 1.0052000e+01   4.0772516e+01
 1.0057467e+01   4.0970656e+01
 1.0062933e+01   4.0706306e+01
 1.0068400e+01   4.1931053e+01
 1.0073867e+01   4.4407329e+01
 1.0079333e+01   4.3509606e+01
 1.0084800e+01   5.2620970e+01
 1.0090267e+01   6.5165153e+01
 1.0095733e+01   5.6222226e+01
 1.0101200e+01   6.8260065e+01
 1.0106667e+01   8.3705227e+01
 1.0112133e+01   7.6197875e+01
 1.0117600e+01   7.1635181e+01
 1.0123067e+01   6.2321461e+01
 1.0128533e+01   6.1117935e+01
 1.0134000e+01   5.1192149e+01
 1.0139467e+01   4.7049427e+01
 1.0144933e+01   4.4024306e+01
 1.0150400e+01   4.1976605e+01
 1.0155867e+01   4.0637781e+01
 1.0161333e+01   3.9882600e+01
 1.0166800e+01   3.9186881e+01
 1.0172267e+01   3.9281242e+01
 1.0177733e+01   3.8667825e+01
 1.0183200e+01   3.8566134e+01
 1.0188667e+01   3.8359018e+01
 1.0194133e+01   3.8153973e+01
 1.0199600e+01   3.8033733e+01
 1.0205067e+01   3.8122888e+01
 1.0210533e+01   3.7941411e+01
 1.0216000e+01   3.7824931e+01
 1.0221467e+01   3.7792781e+01
 1.0226933e+01   3.7725780e+01
 1.0232400e+01   3.7828249e+01
 1.0237867e+01   3.7454896e+01
 1.0243333e+01   3.7798391e+01
 1.0248800e+01   3.7302740e+01
 1.0254267e+01   3.7582817e+01
 1.0259733e+01   3.7166756e+01
 1.0265200e+01   3.7470904e+01
 1.0270667e+01   3.6854979e+01
 1.0276133e+01   3.7427959e+01
 1.0281600e+01   3.6884641e+01
 1.0287067e+01   3.7147027e+01
 1.0292533e+01   3.6940547e+01
 1.0298000e+01   3.6974230e+01
 1.0303467e+01   3.6911214e+01
 1.0308933e+01   3.6907256e+01
 1.0314400e+01   3.6824306e+01
 1.0319867e+01   3.6923462e+01
 1.0325333e+01   3.6793058e+01
 1.0330800e+01   3.6750633e+01
 1.0336267e+01   3.6589703e+01
 1.0341733e+01   3.6565350e+01
 1.0347200e+01   3.6491718e+01
 1.0352667e+01   3.6491772e+01
 1.0358133e+01   3.6267362e+01
 1.0363600e+01   3.6516963e+01
 1.0369067e+01   3.6297717e+01
 1.0374533e+01   3.6455611e+01
 1.0380000e+01   3.6331773e+01
 1.0385467e+01   3.6446525e+01
 1.0390933e+01   3.6402350e+01
 1.0396400e+01   3.6292222e+01
 1.0401867e+01   3.6203559e+01
 1.0407333e+01   3.6283376e+01
 1.0412800e+01   3.6112353e+01
 1.0418267e+01   3.6234016e+01
 1.0423733e+01   3.6112664e+01
 1.0429200e+01   3.6268162e+01
 1.0434667e+01   3.6174205e+01
 1.0440133e+01   3.6488097e+01
 1.0445600e+01   3.6271024e+01
 1.0451067e+01   3.6929210e+01
 1.0456533e+01   3.6100302e+01
 1.0462000e+01   3.6310807e+01
 1.0467467e+01   3.6202788e+01
 1.0472933e+01   3.5913065e+01
 1.0478400e+01   3.6162014e+01
 1.0483867e+01   3.5847702e+01
 1.0489333e+01   3.5892239e+01
 1.0494800e+01   3.5807362e+01
 1.0500267e+01   3.5890834e+01
 1.0505733e+01   3.5737581e+01
 1.0511200e+01   3.5785550e+01
 1.0516667e+01   3.5866738e+01
 1.0522133e+01   3.5911670e+01
 1.0527600e+01   3.5725020e+01
 1.0533067e+01   3.5918289e+01
 1.0538533e+01   3.5857052e+01
 1.0544000e+01   3.5826599e+01
 1.0549467e+01   3.5701670e+01
 1.0554933e+01   3.5818124e+01
 1.0560400e+01   3.5775654e+01
 1.0565867e+01   3.5651051e+01
 1.0571333e+01   3.5814887e+01
 1.0576800e+01   3.5797202e+01
 1.0582267e+01   3.5729700e+01
 1.0587733e+01   3.5761573e+01
 1.0593200e+01   3.5808225e+01
 1.0598667e+01   3.5573932e+01
 1.0604133e+01   3.5887913e+01
 1.0609600e+01   3.5645246e+01
 1.0615067e+01   3.5870463e+01
 1.0620533e+01   3.5634131e+01
 1.0626000e+01   3.5785977e+01
 1.0631467e+01   3.5605738e+01
 1.0636933e+01   3.5851777e+01
 1.0642400e+01   3.5684650e+01
 1.0647867e+01   3.5615955e+01
 1.0653333e+01   3.5507409e+01
 1.0658800e+01   3.5875602e+01
 1.0664267e+01   3.5484440e+01
 1.0669733e+01   3.5480536e+01
 1.0675200e+01   3.5550926e+01
 1.0680667e+01   3.5530434e+01
 1.0686133e+01   3.5541354e+01
 1.0691600e+01   3.5618324e+01
 1.0697067e+01   3.5284984e+01
 1.0702533e+01   3.5653775e+01
 1.0708000e+01   3.5356118e+01
 1.0713467e+01   3.5602018e+01
 1.0718933e+01   3.5569661e+01
 1.0724400e+01   3.5460497e+01
 1.0729867e+01   3.5106043e+01
 1.0735333e+01   3.5560125e+01
 1.0740800e+01   3.5214913e+01
 1.0746267e+01   3.5521692e+01
 1.0751733e+01   3.5331089e+01
 1.0757200e+01   3.5365416e+01
 1.0762667e+01   3.5489321e+01
 1.0768133e+01   3.5213434e+01
 1.0773600e+01   3.5349403e+01
 1.0779067e+01   3.5272430e+01
 1.0784533e+01   3.5280881e+01
 1.0790000e+01   3.5339697e+01
 1.0795467e+01   3.5293461e+01
 1.0800933e+01   3.5312326e+01
 1.0806400e+01   3.5470202e+01
 1.0811867e+01   3.5602440e+01
 1.0817333e+01   3.5263853e+01
 1.0822800e+01   3.5580338e+01
 1.0828267e+01   3.5340151e+01
 1.0833733e+01   3.5455603e+01
 1.0839200e+01   3.5300240e+01
 1.0844667e+01   3.5470180e+01
 1.0850133e+01   3.5279073e+01
 1.0855600e+01   3.5496002e+01
 1.0861067e+01   3.5370633e+01
 1.0866533e+01   3.5412352e+01
 1.0872000e+01   3.5405893e+01
 1.0877467e+01   3.5350275e+01
 1.0882933e+01   3.5601534e+01
 1.0888400e+01   3.5453222e+01
 1.0893867e+01   3.5315332e+01
 1.0899333e+01   3.5812140e+01
 1.0904800e+01   3.5239447e+01
 1.0910267e+01   3.5763961e+01
 1.0915733e+01   3.5303977e+01
 1.0921200e+01   3.5828411e+01
 1.0926667e+01   3.5492551e+01
 1.0932133e+01   3.5710035e+01
 1.0937600e+01   3.5453836e+01
 1.0943067e+01   3.5798788e+01
 1.0948533e+01   3.5359418e+01
 1.0954000e+01   3.5827710e+01
 1.0959467e+01   3.5706309e+01
 1.0964933e+01   3.5948203e+01
 1.0970400e+01   3.5778915e+01
 1.0975867e+01   3.6003866e+01
 1.0981333e+01   3.5825525e+01
 1.0986800e+01   3.5964281e+01
 1.0992267e+01   3.5861669e+01
 1.0997733e+01   3.5915389e+01
 1.1003200e+01   3.5886332e+01
 1.1008667e+01   3.5936324e+01
 1.1014133e+01   3.5912542e+01
 1.1019600e+01   3.5922116e+01
 1.1025067e+01   3.5954786e+01
 1.1030533e+01   3.6242622e+01
 1.1036000e+01   3.6018996e+01
 1.1041467e+01   3.6307474e+01
 1.1046933e+01   3.6330689e+01
 1.1052400e+01   3.6545098e+01
 1.1057867e+01   3.6722686e+01
 1.1063333e+01   3.7173736e+01
 1.1068800e+01   3.7192597e+01
 1.1074267e+01   3.7434624e+01
 1.1079733e+01   3.7227183e+01
 1.1085200e+01   3.7363461e+01
 1.1090667e+01   3.7134027e+01
 1.1096133e+01   3.6914485e+01
 1.1101600e+01   3.6794551e+01
 1.1107067e+01   3.6711386e+01
 1.1112533e+01   3.6413734e+01
 1.1118000e+01   3.6375562e+01
 1.1123467e+01   3.6256969e+01
 1.1128933e+01   3.6230910e+01
 1.1134400e+01   3.6113751e+01
 1.1139867e+01   3.6076665e+01
 1.1145333e+01   3.6111338e+01
 1.1150800e+01   3.5876228e+01
 1.1156267e+01   3.6231653e+01
 1.1161733e+01   3.6021563e+01
 1.1167200e+01   3.5686743e+01
 1.1172667e+01   3.5980254e+01
 1.1178133e+01   3.5777152e+01
 1.1183600e+01   3.5697159e+01
 1.1189067e+01   3.5954433e+01
 1.1194533e+01   3.5848348e+01
