PWDR ff_004446_sum_norm_dc_0.tif Azm= 352.fxye Bank 1
2-Theta Angle (Degrees)
Intensity
       1500
 3.0000000e+00   4.6957164e+01
 3.0054667e+00   4.6253274e+01
 3.0109333e+00   4.6987861e+01
 3.0164000e+00   4.6074648e+01
 3.0218667e+00   4.6470292e+01
 3.0273333e+00   4.5843153e+01
 3.0328000e+00   4.5975946e+01
 3.0382667e+00   4.5515676e+01
 3.0437333e+00   4.5387479e+01
 3.0492000e+00   4.5133494e+01
 3.0546667e+00   4.5187131e+01
 3.0601333e+00   4.4780999e+01
 3.0656000e+00   4.4749136e+01
 3.0710667e+00   4.4353409e+01
 3.0765333e+00   4.4217431e+01
 3.0820000e+00   4.4350200e+01
 3.0874667e+00   4.3660923e+01
 3.0929333e+00   4.3999151e+01
 3.0984000e+00   4.3527665e+01
 3.1038667e+00   4.3890035e+01
 3.1093333e+00   4.3126863e+01
 3.1148000e+00   4.3462949e+01
 3.1202667e+00   4.2988133e+01
 3.1257333e+00   4.3106752e+01
 3.1312000e+00   4.2582315e+01
 3.1366667e+00   4.2846144e+01
 3.1421333e+00   4.2286292e+01
 3.1476000e+00   4.2627552e+01
 3.1530667e+00   4.2208701e+01
 3.1585333e+00   4.2208868e+01
 3.1640000e+00   4.2337468e+01
 3.1694667e+00   4.2131488e+01
 3.1749333e+00   4.2279943e+01
 3.1804000e+00   4.2037980e+01
 3.1858667e+00   4.2090910e+01
 3.1913333e+00   4.1921909e+01
 3.1968000e+00   4.1636861e+01
 3.2022667e+00   4.1704079e+01
 3.2077333e+00   4.1705517e+01
 3.2132000e+00   4.1126460e+01
 3.2186667e+00   4.1548059e+01
 3.2241333e+00   4.1145640e+01
 3.2296000e+00   4.0992746e+01
 3.2350667e+00   4.0859057e+01
 3.2405333e+00   4.0575967e+01
 3.2460000e+00   4.0392181e+01
 3.2514667e+00   4.0419399e+01
 3.2569333e+00   4.0117665e+01
 3.2624000e+00   4.0151239e+01
 3.2678667e+00   3.9943331e+01
 3.2733333e+00   3.9914524e+01
 3.2788000e+00   3.9644035e+01
 3.2842667e+00   3.9830519e+01
 3.2897333e+00   3.9862758e+01
 3.2952000e+00   3.9608495e+01
 3.3006667e+00   3.9825501e+01
 3.3061333e+00   3.9813051e+01
 3.3116000e+00   3.9487118e+01
 3.3170667e+00   3.9357186e+01
 3.3225333e+00   3.9376844e+01
 3.3280000e+00   3.9222516e+01
 3.3334667e+00   3.9219242e+01
 3.3389333e+00   3.8886731e+01
 3.3444000e+00   3.9282249e+01
 3.3498667e+00   3.8773972e+01
 3.3553333e+00   3.8968162e+01
 3.3608000e+00   3.9087044e+01
 3.3662667e+00   3.8886886e+01
 3.3717333e+00   3.8841682e+01
 3.3772000e+00   3.8986499e+01
 3.3826667e+00   3.9036046e+01
 3.3881333e+00   3.8714122e+01
 3.3936000e+00   3.8716438e+01
 3.3990667e+00   3.8683041e+01
 3.4045333e+00   3.8716788e+01
 3.4100000e+00   3.8451068e+01
 3.4154667e+00   3.8626470e+01
 3.4209333e+00   3.8457763e+01
 3.4264000e+00   3.8335989e+01
 3.4318667e+00   3.8199293e+01
 3.4373333e+00   3.8439899e+01
 3.4428000e+00   3.8202493e+01
 3.4482667e+00   3.8169408e+01
 3.4537333e+00   3.8336655e+01
 3.4592000e+00   3.8348789e+01
 3.4646667e+00   3.8175458e+01
 3.4701333e+00   3.8455684e+01
 3.4756000e+00   3.8384322e+01
 3.4810667e+00   3.8494240e+01
 3.4865333e+00   3.8355327e+01
 3.4920000e+00   3.8378984e+01
 3.4974667e+00   3.8295394e+01
 3.5029333e+00   3.8443789e+01
 3.5084000e+00   3.8191850e+01
 3.5138667e+00   3.8646344e+01
 3.5193333e+00   3.8219533e+01
 3.5248000e+00   3.8645449e+01
 3.5302667e+00   3.8573639e+01
 3.5357333e+00   3.8486492e+01
 3.5412000e+00   3.8595929e+01
 3.5466667e+00   3.8700733e+01
 3.5521333e+00   3.8557567e+01
 3.5576000e+00   3.8535119e+01
 3.5630667e+00   3.8601184e+01
 3.5685333e+00   3.8345356e+01
 3.5740000e+00   3.8649211e+01
 3.5794667e+00   3.8338966e+01
 3.5849333e+00   3.8767310e+01
 3.5904000e+00   3.8382254e+01
 3.5958667e+00   3.8654617e+01
 3.6013333e+00   3.8523354e+01
 3.6068000e+00   3.8672155e+01
 3.6122667e+00   3.8436391e+01
 3.6177333e+00   3.8592273e+01
 3.6232000e+00   3.8562713e+01
 3.6286667e+00   3.8452044e+01
 3.6341333e+00   3.8840509e+01
 3.6396000e+00   3.8556840e+01
 3.6450667e+00   3.8765950e+01
 3.6505333e+00   3.8674984e+01
 3.6560000e+00   3.9077292e+01
 3.6614667e+00   3.8597267e+01
 3.6669333e+00   3.9318111e+01
 3.6724000e+00   3.8729944e+01
 3.6778667e+00   3.9146347e+01
 3.6833333e+00   3.9094681e+01
 3.6888000e+00   3.9160177e+01
 3.6942667e+00   3.8975798e+01
 3.6997333e+00   3.9373298e+01
 3.7052000e+00   3.9203025e+01
 3.7106667e+00   3.9454365e+01
 3.7161333e+00   3.9496022e+01
 3.7216000e+00   3.9542917e+01
 3.7270667e+00   3.9492638e+01
 3.7325333e+00   3.9466863e+01
 3.7380000e+00   3.9644025e+01
 3.7434667e+00   3.9349372e+01
 3.7489333e+00   3.9929062e+01
 3.7544000e+00   3.9539985e+01
 3.7598667e+00   3.9941856e+01
 3.7653333e+00   3.9835034e+01
 3.7708000e+00   3.9987260e+01
 3.7762667e+00   3.9890859e+01
 3.7817333e+00   4.0305192e+01
 3.7872000e+00   3.9935275e+01
 3.7926667e+00   4.0303138e+01
 3.7981333e+00   4.0252912e+01
 3.8036000e+00   4.0389268e+01
 3.8090667e+00   4.0385341e+01
 3.8145333e+00   4.0468907e+01
 3.8200000e+00   4.0713555e+01
 3.8254667e+00   4.0490600e+01
 3.8309333e+00   4.0801193e+01
 3.8364000e+00   4.0712126e+01
 3.8418667e+00   4.1062137e+01
 3.8473333e+00   4.0888822e+01
 3.8528000e+00   4.1461453e+01
 3.8582667e+00   4.1160476e+01
 3.8637333e+00   4.1938225e+01
 3.8692000e+00   4.1356863e+01
 3.8746667e+00   4.2256690e+01
 3.8801333e+00   4.1913321e+01
 3.8856000e+00   4.2655204e+01
 3.8910667e+00   4.2579089e+01
 3.8965333e+00   4.3046971e+01
 3.9020000e+00   4.3008486e+01
 3.9074667e+00   4.3316730e+01
 3.9129333e+00   4.3439619e+01
 3.9184000e+00   4.3307725e+01
 3.9238667e+00   4.3564132e+01
 3.9293333e+00   4.3014070e+01
 3.9348000e+00   4.3461735e+01
 3.9402667e+00   4.3118401e+01
 3.9457333e+00   4.3334075e+01
 3.9512000e+00   4.3084276e+01
 3.9566667e+00   4.3405554e+01
 3.9621333e+00   4.3116623e+01
 3.9676000e+00   4.3527669e+01
 3.9730667e+00   4.3261708e+01
 3.9785333e+00   4.3589024e+01
 3.9840000e+00   4.3218815e+01
 3.9894667e+00   4.3599177e+01
 3.9949333e+00   4.3722533e+01
 4.0004000e+00   4.3611605e+01
 4.0058667e+00   4.4063094e+01
 4.0113333e+00   4.3755510e+01
 4.0168000e+00   4.4412585e+01
 4.0222667e+00   4.4309865e+01
 4.0277333e+00   4.4836316e+01
 4.0332000e+00   4.4768418e+01
 4.0386667e+00   4.5374146e+01
 4.0441333e+00   4.5931297e+01
 4.0496000e+00   4.5492965e+01
 4.0550667e+00   4.5441755e+01
 4.0605333e+00   4.6088349e+01
 4.0660000e+00   4.5946288e+01
 4.0714667e+00   4.7166288e+01
 4.0769333e+00   4.7647977e+01
 4.0824000e+00   4.6886082e+01
 4.0878667e+00   4.8275040e+01
 4.0933333e+00   4.7672258e+01
 4.0988000e+00   4.8409230e+01
 4.1042667e+00   4.8509870e+01
 4.1097333e+00   4.8705426e+01
 4.1152000e+00   4.8783249e+01
 4.1206667e+00   4.8937239e+01
 4.1261333e+00   4.8450859e+01
 4.1316000e+00   4.8806922e+01
 4.1370667e+00   4.8520426e+01
 4.1425333e+00   4.8985264e+01
 4.1480000e+00   4.8375998e+01
 4.1534667e+00   4.9010329e+01
 4.1589333e+00   4.8629716e+01
 4.1644000e+00   4.9008641e+01
 4.1698667e+00   4.8583797e+01
 4.1753333e+00   4.9106375e+01
 4.1808000e+00   4.8605658e+01
 4.1862667e+00   4.8960865e+01
 4.1917333e+00   4.8960318e+01
 4.1972000e+00   4.8893518e+01
 4.2026667e+00   4.9317978e+01
 4.2081333e+00   4.9338586e+01
 4.2136000e+00   4.9600510e+01
 4.2190667e+00   4.9719369e+01
 4.2245333e+00   4.9668000e+01
 4.2300000e+00   4.9788528e+01
 4.2354667e+00   5.0209457e+01
 4.2409333e+00   4.9994189e+01
 4.2464000e+00   5.0708073e+01
 4.2518667e+00   5.0691392e+01
 4.2573333e+00   5.1168760e+01
 4.2628000e+00   5.1481410e+01
 4.2682667e+00   5.1602258e+01
 4.2737333e+00   5.1741870e+01
 4.2792000e+00   5.2060514e+01
 4.2846667e+00   5.2302922e+01
 4.2901333e+00   5.2405722e+01
 4.2956000e+00   5.2876714e+01
 4.3010667e+00   5.3127233e+01
 4.3065333e+00   5.3330113e+01
 4.3120000e+00   5.3623742e+01
 4.3174667e+00   5.3974545e+01
 4.3229333e+00   5.4144019e+01
 4.3284000e+00   5.4634384e+01
 4.3338667e+00   5.4842435e+01
 4.3393333e+00   5.5370173e+01
 4.3448000e+00   5.5366298e+01
 4.3502667e+00   5.6109950e+01
 4.3557333e+00   5.6342709e+01
 4.3612000e+00   5.6667669e+01
 4.3666667e+00   5.7176663e+01
 4.3721333e+00   5.7717094e+01
 4.3776000e+00   5.7905893e+01
 4.3830667e+00   5.9012952e+01
 4.3885333e+00   5.9286417e+01
 4.3940000e+00   6.0255749e+01
 4.3994667e+00   6.0955161e+01
 4.4049333e+00   6.1516842e+01
 4.4104000e+00   6.2302189e+01
 4.4158667e+00   6.3739884e+01
 4.4213333e+00   6.4426949e+01
 4.4268000e+00   6.5707850e+01
 4.4322667e+00   6.6965039e+01
 4.4377333e+00   6.8940625e+01
 4.4432000e+00   7.1147737e+01
 4.4486667e+00   7.5382765e+01
 4.4541333e+00   8.1737448e+01
 4.4596000e+00   9.7325823e+01
 4.4650667e+00   1.2342705e+02
 4.4705333e+00   1.7591843e+02
 4.4760000e+00   2.4978424e+02
 4.4814667e+00   3.6291848e+02
 4.4869333e+00   4.9821158e+02
 4.4924000e+00   7.1203226e+02
 4.4978667e+00   8.7426292e+02
 4.5033333e+00   1.0727768e+03
 4.5088000e+00   1.2407458e+03
 4.5142667e+00   1.3860450e+03
 4.5197333e+00   1.2753610e+03
 4.5252000e+00   1.0894210e+03
 4.5306667e+00   8.6977182e+02
 4.5361333e+00   6.7076406e+02
 4.5416000e+00   4.8110054e+02
 4.5470667e+00   3.4144413e+02
 4.5525333e+00   2.9091281e+02
 4.5580000e+00   1.8930656e+02
 4.5634667e+00   1.5229392e+02
 4.5689333e+00   1.0666022e+02
 4.5744000e+00   8.9213612e+01
 4.5798667e+00   7.8721669e+01
 4.5853333e+00   7.4277082e+01
 4.5908000e+00   7.1638930e+01
 4.5962667e+00   6.9582850e+01
 4.6017333e+00   6.8598645e+01
 4.6072000e+00   6.7700401e+01
 4.6126667e+00   6.6967379e+01
 4.6181333e+00   6.6848517e+01
 4.6236000e+00   6.6812867e+01
 4.6290667e+00   6.6509841e+01
 4.6345333e+00   6.7031879e+01
 4.6400000e+00   6.7021252e+01
 4.6454667e+00   6.7676275e+01
 4.6509333e+00   6.8087525e+01
 4.6564000e+00   6.8126023e+01
 4.6618667e+00   6.8082276e+01
 4.6673333e+00   6.7539687e+01
 4.6728000e+00   6.7405016e+01
 4.6782667e+00   6.7058856e+01
 4.6837333e+00   6.6670524e+01
 4.6892000e+00   6.5863932e+01
 4.6946667e+00   6.5765427e+01
 4.7001333e+00   6.4663183e+01
 4.7056000e+00   6.4716061e+01
 4.7110667e+00   6.4025576e+01
 4.7165333e+00   6.3915766e+01
 4.7220000e+00   6.3246585e+01
 4.7274667e+00   6.3540640e+01
 4.7329333e+00   6.2530740e+01
 4.7384000e+00   6.2934220e+01
 4.7438667e+00   6.2004545e+01
 4.7493333e+00   6.2121659e+01
 4.7548000e+00   6.1791183e+01
 4.7602667e+00   6.1348248e+01
 4.7657333e+00   6.1925994e+01
 4.7712000e+00   6.1523455e+01
 4.7766667e+00   6.1715751e+01
 4.7821333e+00   6.0758754e+01
 4.7876000e+00   6.1286975e+01
 4.7930667e+00   6.0521587e+01
 4.7985333e+00   6.1187371e+01
 4.8040000e+00   6.0891423e+01
 4.8094667e+00   6.1258708e+01
 4.8149333e+00   6.1009306e+01
 4.8204000e+00   6.1839685e+01
 4.8258667e+00   6.1678696e+01
 4.8313333e+00   6.2137700e+01
 4.8368000e+00   6.2402378e+01
 4.8422667e+00   6.2385686e+01
 4.8477333e+00   6.3494021e+01
 4.8532000e+00   6.3003627e+01
 4.8586667e+00   6.4636333e+01
 4.8641333e+00   6.3532716e+01
 4.8696000e+00   6.6627721e+01
 4.8750667e+00   6.4364842e+01
 4.8805333e+00   6.7921963e+01
 4.8860000e+00   6.5969887e+01
 4.8914667e+00   7.0573075e+01
 4.8969333e+00   6.8777698e+01
 4.9024000e+00   7.6103415e+01
 4.9078667e+00   7.5320175e+01
 4.9133333e+00   8.9455010e+01
 4.9188000e+00   9.6361337e+01
 4.9242667e+00   1.2678666e+02
 4.9297333e+00   1.5830621e+02
 4.9352000e+00   1.6275976e+02
 4.9406667e+00   2.8831826e+02
 4.9461333e+00   2.1886662e+02
 4.9516000e+00   4.4881731e+02
 4.9570667e+00   3.1741910e+02
 4.9625333e+00   5.3739889e+02
 4.9680000e+00   4.2056636e+02
 4.9734667e+00   4.6125593e+02
 4.9789333e+00   4.8648975e+02
 4.9844000e+00   4.1820977e+02
 4.9898667e+00   4.9411230e+02
 4.9953333e+00   3.6229771e+02
 5.0008000e+00   2.7577226e+02
 5.0062667e+00   2.4935132e+02
 5.0117333e+00   1.7216509e+02
 5.0172000e+00   1.5931439e+02
 5.0226667e+00   1.0884524e+02
 5.0281333e+00   9.5819015e+01
 5.0336000e+00   8.4019537e+01
 5.0390667e+00   7.5261570e+01
 5.0445333e+00   7.4046824e+01
 5.0500000e+00   6.9710848e+01
 5.0554667e+00   6.9362983e+01
 5.0609333e+00   6.7202553e+01
 5.0664000e+00   6.6479887e+01
 5.0718667e+00   6.5574060e+01
 5.0773333e+00   6.4726757e+01
 5.0828000e+00   6.3483172e+01
 5.0882667e+00   6.2927284e+01
 5.0937333e+00   6.2207693e+01
 5.0992000e+00   6.1222670e+01
 5.1046667e+00   6.0646643e+01
 5.1101333e+00   6.0066884e+01
 5.1156000e+00   5.9650407e+01
 5.1210667e+00   5.8590334e+01
 5.1265333e+00   5.8907969e+01
 5.1320000e+00   5.7653596e+01
 5.1374667e+00   5.8018358e+01
 5.1429333e+00   5.6921446e+01
 5.1484000e+00   5.7158160e+01
 5.1538667e+00   5.6311187e+01
 5.1593333e+00   5.6284203e+01
 5.1648000e+00   5.5893944e+01
 5.1702667e+00   5.5425377e+01
 5.1757333e+00   5.5403930e+01
 5.1812000e+00   5.4840521e+01
 5.1866667e+00   5.4493292e+01
 5.1921333e+00   5.4635249e+01
 5.1976000e+00   5.4106908e+01
 5.2030667e+00   5.4032157e+01
 5.2085333e+00   5.4050372e+01
 5.2140000e+00   5.3316768e+01
 5.2194667e+00   5.3422566e+01
 5.2249333e+00   5.2945312e+01
 5.2304000e+00   5.2917343e+01
 5.2358667e+00   5.2245510e+01
 5.2413333e+00   5.2486058e+01
 5.2468000e+00   5.1945995e+01
 5.2522667e+00   5.1745263e+01
 5.2577333e+00   5.1979994e+01
 5.2632000e+00   5.1512487e+01
 5.2686667e+00   5.1475843e+01
 5.2741333e+00   5.1359669e+01
 5.2796000e+00   5.1074755e+01
 5.2850667e+00   5.1017089e+01
 5.2905333e+00   5.0830998e+01
 5.2960000e+00   5.0514850e+01
 5.3014667e+00   5.0660745e+01
 5.3069333e+00   5.0333959e+01
 5.3124000e+00   5.0332816e+01
 5.3178667e+00   5.0164543e+01
 5.3233333e+00   5.0040395e+01
 5.3288000e+00   4.9807246e+01
 5.3342667e+00   4.9842728e+01
 5.3397333e+00   4.9647429e+01
 5.3452000e+00   4.9497866e+01
 5.3506667e+00   4.9588042e+01
 5.3561333e+00   4.9587604e+01
 5.3616000e+00   4.9428956e+01
 5.3670667e+00   4.9449057e+01
 5.3725333e+00   4.9202450e+01
 5.3780000e+00   4.9258973e+01
 5.3834667e+00   4.8839912e+01
 5.3889333e+00   4.8664494e+01
 5.3944000e+00   4.8432978e+01
 5.3998667e+00   4.8447953e+01
 5.4053333e+00   4.8281475e+01
 5.4108000e+00   4.8107107e+01
 5.4162667e+00   4.8256138e+01
 5.4217333e+00   4.7971805e+01
 5.4272000e+00   4.8037624e+01
 5.4326667e+00   4.8000790e+01
 5.4381333e+00   4.7776140e+01
 5.4436000e+00   4.7951568e+01
 5.4490667e+00   4.7671121e+01
 5.4545333e+00   4.7532409e+01
 5.4600000e+00   4.7495727e+01
 5.4654667e+00   4.7474484e+01
 5.4709333e+00   4.7309621e+01
 5.4764000e+00   4.7463787e+01
 5.4818667e+00   4.7323365e+01
 5.4873333e+00   4.7410894e+01
 5.4928000e+00   4.7092765e+01
 5.4982667e+00   4.7321713e+01
 5.5037333e+00   4.7081086e+01
 5.5092000e+00   4.7105531e+01
 5.5146667e+00   4.7025355e+01
 5.5201333e+00   4.6867871e+01
 5.5256000e+00   4.6911459e+01
 5.5310667e+00   4.6749818e+01
 5.5365333e+00   4.6820510e+01
 5.5420000e+00   4.6825049e+01
 5.5474667e+00   4.6634734e+01
 5.5529333e+00   4.6676845e+01
 5.5584000e+00   4.6757231e+01
 5.5638667e+00   4.6532398e+01
 5.5693333e+00   4.6597836e+01
 5.5748000e+00   4.6636587e+01
 5.5802667e+00   4.6444706e+01
 5.5857333e+00   4.6720723e+01
 5.5912000e+00   4.6488499e+01
 5.5966667e+00   4.6665293e+01
 5.6021333e+00   4.6449004e+01
 5.6076000e+00   4.6545662e+01
 5.6130667e+00   4.6397371e+01
 5.6185333e+00   4.6523041e+01
 5.6240000e+00   4.6454856e+01
 5.6294667e+00   4.6529127e+01
 5.6349333e+00   4.6482440e+01
 5.6404000e+00   4.6685052e+01
 5.6458667e+00   4.6769243e+01
 5.6513333e+00   4.7038064e+01
 5.6568000e+00   4.7649522e+01
 5.6622667e+00   4.7767197e+01
 5.6677333e+00   5.0075609e+01
 5.6732000e+00   5.0186316e+01
 5.6786667e+00   6.3192660e+01
 5.6841333e+00   7.0267974e+01
 5.6896000e+00   7.4790651e+01
 5.6950667e+00   8.6440878e+01
 5.7005333e+00   1.2475172e+02
 5.7060000e+00   1.1714095e+02
 5.7114667e+00   1.4904313e+02
 5.7169333e+00   1.4479728e+02
 5.7224000e+00   1.6450214e+02
 5.7278667e+00   1.3473362e+02
 5.7333333e+00   1.8934418e+02
 5.7388000e+00   1.2584489e+02
 5.7442667e+00   1.7892427e+02
 5.7497333e+00   1.4484445e+02
 5.7552000e+00   1.5261079e+02
 5.7606667e+00   1.3398752e+02
 5.7661333e+00   1.3382727e+02
 5.7716000e+00   1.0285023e+02
 5.7770667e+00   9.9396542e+01
 5.7825333e+00   7.1402790e+01
 5.7880000e+00   8.1474776e+01
 5.7934667e+00   6.2910966e+01
 5.7989333e+00   5.7327072e+01
 5.8044000e+00   5.0856255e+01
 5.8098667e+00   4.8909196e+01
 5.8153333e+00   4.7199809e+01
 5.8208000e+00   4.6224378e+01
 5.8262667e+00   4.5802480e+01
 5.8317333e+00   4.5222594e+01
 5.8372000e+00   4.5076204e+01
 5.8426667e+00   4.4849293e+01
 5.8481333e+00   4.4659132e+01
 5.8536000e+00   4.4419179e+01
 5.8590667e+00   4.4012272e+01
 5.8645333e+00   4.4239348e+01
 5.8700000e+00   4.3690716e+01
 5.8754667e+00   4.3670706e+01
 5.8809333e+00   4.3471776e+01
 5.8864000e+00   4.3343419e+01
 5.8918667e+00   4.2931665e+01
 5.8973333e+00   4.2992381e+01
 5.9028000e+00   4.2703955e+01
 5.9082667e+00   4.2814728e+01
 5.9137333e+00   4.2531565e+01
 5.9192000e+00   4.2446237e+01
 5.9246667e+00   4.2346447e+01
 5.9301333e+00   4.2357918e+01
 5.9356000e+00   4.2042869e+01
 5.9410667e+00   4.2139395e+01
 5.9465333e+00   4.2216177e+01
 5.9520000e+00   4.1706285e+01
 5.9574667e+00   4.2084649e+01
 5.9629333e+00   4.1599067e+01
 5.9684000e+00   4.1829585e+01
 5.9738667e+00   4.1403508e+01
 5.9793333e+00   4.1748268e+01
 5.9848000e+00   4.1422059e+01
 5.9902667e+00   4.1561720e+01
 5.9957333e+00   4.1527410e+01
 6.0012000e+00   4.1598398e+01
 6.0066667e+00   4.1512981e+01
 6.0121333e+00   4.1693489e+01
 6.0176000e+00   4.1428614e+01
 6.0230667e+00   4.1584122e+01
 6.0285333e+00   4.1587508e+01
 6.0340000e+00   4.1462785e+01
 6.0394667e+00   4.1792700e+01
 6.0449333e+00   4.1485090e+01
 6.0504000e+00   4.1713257e+01
 6.0558667e+00   4.1538224e+01
 6.0613333e+00   4.1784789e+01
 6.0668000e+00   4.1599953e+01
 6.0722667e+00   4.1670313e+01
 6.0777333e+00   4.1650342e+01
 6.0832000e+00   4.1420743e+01
 6.0886667e+00   4.1494807e+01
 6.0941333e+00   4.1664931e+01
 6.0996000e+00   4.1268068e+01
 6.1050667e+00   4.1707133e+01
 6.1105333e+00   4.1448821e+01
 6.1160000e+00   4.1512733e+01
 6.1214667e+00   4.1568219e+01
 6.1269333e+00   4.1540386e+01
 6.1324000e+00   4.1518935e+01
 6.1378667e+00   4.1296082e+01
 6.1433333e+00   4.1388417e+01
 6.1488000e+00   4.1003935e+01
 6.1542667e+00   4.1213593e+01
 6.1597333e+00   4.0745091e+01
 6.1652000e+00   4.0928869e+01
 6.1706667e+00   4.0636559e+01
 6.1761333e+00   4.0688912e+01
 6.1816000e+00   4.0551440e+01
 6.1870667e+00   4.0855981e+01
 6.1925333e+00   4.0681244e+01
 6.1980000e+00   4.1034551e+01
 6.2034667e+00   4.0830054e+01
 6.2089333e+00   4.0989844e+01
 6.2144000e+00   4.1038658e+01
 6.2198667e+00   4.1131212e+01
 6.2253333e+00   4.1080376e+01
 6.2308000e+00   4.1188353e+01
 6.2362667e+00   4.1351023e+01
 6.2417333e+00   4.1282633e+01
 6.2472000e+00   4.1421374e+01
 6.2526667e+00   4.1231913e+01
 6.2581333e+00   4.1672344e+01
 6.2636000e+00   4.1485036e+01
 6.2690667e+00   4.1461724e+01
 6.2745333e+00   4.1522412e+01
 6.2800000e+00   4.1703996e+01
 6.2854667e+00   4.1518613e+01
 6.2909333e+00   4.1846859e+01
 6.2964000e+00   4.1861232e+01
 6.3018667e+00   4.1999071e+01
 6.3073333e+00   4.2179045e+01
 6.3128000e+00   4.2455632e+01
 6.3182667e+00   4.2833483e+01
 6.3237333e+00   4.3463568e+01
 6.3292000e+00   4.4979064e+01
 6.3346667e+00   4.6786576e+01
 6.3401333e+00   5.2803035e+01
 6.3456000e+00   6.2454385e+01
 6.3510667e+00   8.4902258e+01
 6.3565333e+00   1.0695239e+02
 6.3620000e+00   1.5067345e+02
 6.3674667e+00   1.7162644e+02
 6.3729333e+00   2.0309088e+02
 6.3784000e+00   2.0318322e+02
 6.3838667e+00   1.9739314e+02
 6.3893333e+00   1.8032084e+02
 6.3948000e+00   1.7108914e+02
 6.4002667e+00   1.4146369e+02
 6.4057333e+00   1.2521914e+02
 6.4112000e+00   1.0839549e+02
 6.4166667e+00   9.4528123e+01
 6.4221333e+00   8.2533419e+01
 6.4276000e+00   7.1263815e+01
 6.4330667e+00   5.9722759e+01
 6.4385333e+00   5.1192561e+01
 6.4440000e+00   4.6692487e+01
 6.4494667e+00   4.3993880e+01
 6.4549333e+00   4.3088620e+01
 6.4604000e+00   4.2193800e+01
 6.4658667e+00   4.2020011e+01
 6.4713333e+00   4.1542766e+01
 6.4768000e+00   4.1579116e+01
 6.4822667e+00   4.1126932e+01
 6.4877333e+00   4.1115105e+01
 6.4932000e+00   4.0730803e+01
 6.4986667e+00   4.1098117e+01
 6.5041333e+00   4.0580834e+01
 6.5096000e+00   4.0752310e+01
 6.5150667e+00   4.0753685e+01
 6.5205333e+00   4.0622087e+01
 6.5260000e+00   4.0847171e+01
 6.5314667e+00   4.0354144e+01
 6.5369333e+00   4.1195586e+01
 6.5424000e+00   4.0303440e+01
 6.5478667e+00   4.0310040e+01
 6.5533333e+00   3.9913031e+01
 6.5588000e+00   4.0345566e+01
 6.5642667e+00   3.9787782e+01
 6.5697333e+00   4.0226193e+01
 6.5752000e+00   3.9854983e+01
 6.5806667e+00   4.0122063e+01
 6.5861333e+00   3.9852166e+01
 6.5916000e+00   4.0003872e+01
 6.5970667e+00   3.9769633e+01
 6.6025333e+00   3.9906830e+01
 6.6080000e+00   3.9728423e+01
 6.6134667e+00   3.9767128e+01
 6.6189333e+00   3.9758867e+01
 6.6244000e+00   3.9801891e+01
 6.6298667e+00   3.9932541e+01
 6.6353333e+00   3.9764583e+01
 6.6408000e+00   3.9893414e+01
 6.6462667e+00   3.9653509e+01
 6.6517333e+00   3.9867806e+01
 6.6572000e+00   3.9618899e+01
 6.6626667e+00   3.9900914e+01
 6.6681333e+00   3.9577571e+01
 6.6736000e+00   3.9865860e+01
 6.6790667e+00   3.9709301e+01
 6.6845333e+00   4.0027909e+01
 6.6900000e+00   3.9554790e+01
 6.6954667e+00   4.0093987e+01
 6.7009333e+00   3.9807975e+01
 6.7064000e+00   3.9801655e+01
 6.7118667e+00   3.9849804e+01
 6.7173333e+00   3.9903831e+01
 6.7228000e+00   3.9820358e+01
 6.7282667e+00   3.9866355e+01
 6.7337333e+00   3.9954347e+01
 6.7392000e+00   3.9773974e+01
 6.7446667e+00   4.0032904e+01
 6.7501333e+00   3.9774250e+01
 6.7556000e+00   3.9994232e+01
 6.7610667e+00   3.9748340e+01
 6.7665333e+00   4.0047680e+01
 6.7720000e+00   3.9684078e+01
 6.7774667e+00   3.9949709e+01
 6.7829333e+00   3.9821802e+01
 6.7884000e+00   3.9809239e+01
 6.7938667e+00   3.9935683e+01
 6.7993333e+00   3.9781104e+01
 6.8048000e+00   4.0030785e+01
 6.8102667e+00   3.9795453e+01
 6.8157333e+00   4.0157308e+01
 6.8212000e+00   3.9662444e+01
 6.8266667e+00   4.0197380e+01
 6.8321333e+00   3.9767646e+01
 6.8376000e+00   4.0317807e+01
 6.8430667e+00   3.9651825e+01
 6.8485333e+00   4.0411160e+01
 6.8540000e+00   3.9943144e+01
 6.8594667e+00   4.0337386e+01
 6.8649333e+00   4.0013800e+01
 6.8704000e+00   4.0638413e+01
 6.8758667e+00   4.0016086e+01
 6.8813333e+00   4.0607763e+01
 6.8868000e+00   4.0184296e+01
 6.8922667e+00   4.0561039e+01
 6.8977333e+00   4.0273515e+01
 6.9032000e+00   4.0345553e+01
 6.9086667e+00   4.0515147e+01
 6.9141333e+00   4.0289145e+01
 6.9196000e+00   4.0628405e+01
 6.9250667e+00   4.0204066e+01
 6.9305333e+00   4.0830227e+01
 6.9360000e+00   4.0095921e+01
 6.9414667e+00   4.0902997e+01
 6.9469333e+00   4.0314719e+01
 6.9524000e+00   4.0985301e+01
 6.9578667e+00   4.0370912e+01
 6.9633333e+00   4.1111794e+01
 6.9688000e+00   4.0337241e+01
 6.9742667e+00   4.1228220e+01
 6.9797333e+00   4.0735658e+01
 6.9852000e+00   4.0961572e+01
 6.9906667e+00   4.0972659e+01
 6.9961333e+00   4.1086757e+01
 7.0016000e+00   4.1040931e+01
 7.0070667e+00   4.1113865e+01
 7.0125333e+00   4.1273655e+01
 7.0180000e+00   4.1259661e+01
 7.0234667e+00   4.1412043e+01
 7.0289333e+00   4.1311723e+01
 7.0344000e+00   4.1776997e+01
 7.0398667e+00   4.1448199e+01
 7.0453333e+00   4.1704466e+01
 7.0508000e+00   4.1533556e+01
 7.0562667e+00   4.2130440e+01
 7.0617333e+00   4.1554057e+01
 7.0672000e+00   4.2188746e+01
 7.0726667e+00   4.1835013e+01
 7.0781333e+00   4.2361475e+01
 7.0836000e+00   4.1872242e+01
 7.0890667e+00   4.2763260e+01
 7.0945333e+00   4.2179431e+01
 7.1000000e+00   4.2970016e+01
 7.1054667e+00   4.2552784e+01
 7.1109333e+00   4.2974223e+01
 7.1164000e+00   4.3096848e+01
 7.1218667e+00   4.3047376e+01
 7.1273333e+00   4.3271205e+01
 7.1328000e+00   4.3102802e+01
 7.1382667e+00   4.3387909e+01
 7.1437333e+00   4.3037053e+01
 7.1492000e+00   4.3537779e+01
 7.1546667e+00   4.2961835e+01
 7.1601333e+00   4.3798915e+01
 7.1656000e+00   4.2993988e+01
 7.1710667e+00   4.3692374e+01
 7.1765333e+00   4.3194897e+01
 7.1820000e+00   4.3713445e+01
 7.1874667e+00   4.3233913e+01
 7.1929333e+00   4.3984318e+01
 7.1984000e+00   4.3309835e+01
 7.2038667e+00   4.3835080e+01
 7.2093333e+00   4.3513075e+01
 7.2148000e+00   4.4049321e+01
 7.2202667e+00   4.3392731e+01
 7.2257333e+00   4.3987053e+01
 7.2312000e+00   4.3737832e+01
 7.2366667e+00   4.3792148e+01
 7.2421333e+00   4.3790946e+01
 7.2476000e+00   4.3902994e+01
 7.2530667e+00   4.3994750e+01
 7.2585333e+00   4.3777014e+01
 7.2640000e+00   4.4053207e+01
 7.2694667e+00   4.3945699e+01
 7.2749333e+00   4.4208757e+01
 7.2804000e+00   4.3910641e+01
 7.2858667e+00   4.4468309e+01
 7.2913333e+00   4.4035927e+01
 7.2968000e+00   4.4314908e+01
 7.3022667e+00   4.4069962e+01
 7.3077333e+00   4.4260432e+01
 7.3132000e+00   4.4391268e+01
 7.3186667e+00   4.4470661e+01
 7.3241333e+00   4.4436440e+01
 7.3296000e+00   4.4633575e+01
 7.3350667e+00   4.4638139e+01
 7.3405333e+00   4.4581588e+01
 7.3460000e+00   4.4748861e+01
 7.3514667e+00   4.4665673e+01
 7.3569333e+00   4.4769448e+01
 7.3624000e+00   4.4640967e+01
 7.3678667e+00   4.5134433e+01
 7.3733333e+00   4.5074120e+01
 7.3788000e+00   4.5026385e+01
 7.3842667e+00   4.5108561e+01
 7.3897333e+00   4.5401825e+01
 7.3952000e+00   4.5076397e+01
 7.4006667e+00   4.5410836e+01
 7.4061333e+00   4.5491135e+01
 7.4116000e+00   4.5680277e+01
 7.4170667e+00   4.5548552e+01
 7.4225333e+00   4.5870155e+01
 7.4280000e+00   4.5733556e+01
 7.4334667e+00   4.5744181e+01
 7.4389333e+00   4.6001475e+01
 7.4444000e+00   4.5925758e+01
 7.4498667e+00   4.6225911e+01
 7.4553333e+00   4.6027435e+01
 7.4608000e+00   4.6337930e+01
 7.4662667e+00   4.6177556e+01
 7.4717333e+00   4.6378648e+01
 7.4772000e+00   4.6275195e+01
 7.4826667e+00   4.6613685e+01
 7.4881333e+00   4.6597754e+01
 7.4936000e+00   4.6834294e+01
 7.4990667e+00   4.6700996e+01
 7.5045333e+00   4.6863326e+01
 7.5100000e+00   4.6936309e+01
 7.5154667e+00   4.7009617e+01
 7.5209333e+00   4.6938878e+01
 7.5264000e+00   4.6947526e+01
 7.5318667e+00   4.7389929e+01
 7.5373333e+00   4.7290841e+01
 7.5428000e+00   4.7450192e+01
 7.5482667e+00   4.7568668e+01
 7.5537333e+00   4.7842508e+01
 7.5592000e+00   4.7620564e+01
 7.5646667e+00   4.8006876e+01
 7.5701333e+00   4.7857462e+01
 7.5756000e+00   4.8043856e+01
 7.5810667e+00   4.7977789e+01
 7.5865333e+00   4.8494786e+01
 7.5920000e+00   4.8308444e+01
 7.5974667e+00   4.8596758e+01
 7.6029333e+00   4.8680424e+01
 7.6084000e+00   4.8916086e+01
 7.6138667e+00   4.8934464e+01
 7.6193333e+00   4.9122107e+01
 7.6248000e+00   4.9256073e+01
 7.6302667e+00   4.9104419e+01
 7.6357333e+00   4.9438487e+01
 7.6412000e+00   4.9454583e+01
 7.6466667e+00   4.9774898e+01
 7.6521333e+00   4.9481161e+01
 7.6576000e+00   5.0366082e+01
 7.6630667e+00   4.9789674e+01
 7.6685333e+00   5.0326272e+01
 7.6740000e+00   5.0207997e+01
 7.6794667e+00   5.0738201e+01
 7.6849333e+00   5.0317864e+01
 7.6904000e+00   5.1095026e+01
 7.6958667e+00   5.0612140e+01
 7.7013333e+00   5.1443197e+01
 7.7068000e+00   5.1119732e+01
 7.7122667e+00   5.1600610e+01
 7.7177333e+00   5.1975936e+01
 7.7232000e+00   5.1839300e+01
 7.7286667e+00   5.2391006e+01
 7.7341333e+00   5.2589845e+01
 7.7396000e+00   5.2909671e+01
 7.7450667e+00   5.3342675e+01
 7.7505333e+00   5.3941016e+01
 7.7560000e+00   5.4271438e+01
 7.7614667e+00   5.5393589e+01
 7.7669333e+00   5.6388833e+01
 7.7724000e+00   5.9279836e+01
 7.7778667e+00   6.3853606e+01
 7.7833333e+00   7.1321955e+01
 7.7888000e+00   8.3422177e+01
 7.7942667e+00   1.0334860e+02
 7.7997333e+00   1.2682529e+02
 7.8052000e+00   1.5717842e+02
 7.8106667e+00   1.8002856e+02
 7.8161333e+00   1.9935479e+02
 7.8216000e+00   2.1226797e+02
 7.8270667e+00   2.1797951e+02
 7.8325333e+00   2.0564630e+02
 7.8380000e+00   1.9508929e+02
 7.8434667e+00   1.7337984e+02
 7.8489333e+00   1.4997836e+02
 7.8544000e+00   1.2767289e+02
 7.8598667e+00   1.0528699e+02
 7.8653333e+00   8.8425050e+01
 7.8708000e+00   7.3588019e+01
 7.8762667e+00   6.6436746e+01
 7.8817333e+00   6.0610696e+01
 7.8872000e+00   5.8776471e+01
 7.8926667e+00   5.7018314e+01
 7.8981333e+00   5.6767138e+01
 7.9036000e+00   5.5792143e+01
 7.9090667e+00   5.5871357e+01
 7.9145333e+00   5.5302124e+01
 7.9200000e+00   5.5333303e+01
 7.9254667e+00   5.5089076e+01
 7.9309333e+00   5.4945450e+01
 7.9364000e+00   5.4856816e+01
 7.9418667e+00   5.4498160e+01
 7.9473333e+00   5.4860324e+01
 7.9528000e+00   5.4240234e+01
 7.9582667e+00   5.4490176e+01
 7.9637333e+00   5.4150333e+01
 7.9692000e+00   5.4409902e+01
 7.9746667e+00   5.3766942e+01
 7.9801333e+00   5.4192410e+01
 7.9856000e+00   5.3674477e+01
 7.9910667e+00   5.4027410e+01
 7.9965333e+00   5.3493574e+01
 8.0020000e+00   5.4195348e+01
 8.0074667e+00   5.3344842e+01
 8.0129333e+00   5.4222051e+01
 8.0184000e+00   5.3767695e+01
 8.0238667e+00   5.4303187e+01
 8.0293333e+00   5.4093374e+01
 8.0348000e+00   5.4686909e+01
 8.0402667e+00   5.4705585e+01
 8.0457333e+00   5.5755287e+01
 8.0512000e+00   5.5816370e+01
 8.0566667e+00   6.0724085e+01
 8.0621333e+00   5.9605704e+01
 8.0676000e+00   7.5294698e+01
 8.0730667e+00   6.7426427e+01
 8.0785333e+00   8.4229751e+01
 8.0840000e+00   7.2309019e+01
 8.0894667e+00   9.4613776e+01
 8.0949333e+00   7.9267759e+01
 8.1004000e+00   1.2639117e+02
 8.1058667e+00   1.1782468e+02
 8.1113333e+00   1.4595032e+02
 8.1168000e+00   1.4247744e+02
 8.1222667e+00   1.4052449e+02
 8.1277333e+00   1.2289264e+02
 8.1332000e+00   1.3230534e+02
 8.1386667e+00   1.1009092e+02
 8.1441333e+00   1.0876886e+02
 8.1496000e+00   1.0394806e+02
 8.1550667e+00   9.7776083e+01
 8.1605333e+00   9.2627331e+01
 8.1660000e+00   8.4180829e+01
 8.1714667e+00   9.1629831e+01
 8.1769333e+00   8.0812040e+01
 8.1824000e+00   7.6934564e+01
 8.1878667e+00   6.7097128e+01
 8.1933333e+00   6.0750879e+01
 8.1988000e+00   5.7123560e+01
 8.2042667e+00   5.5509274e+01
 8.2097333e+00   5.4784079e+01
 8.2152000e+00   5.4383758e+01
 8.2206667e+00   5.4085102e+01
 8.2261333e+00   5.3902937e+01
 8.2316000e+00   5.3515579e+01
 8.2370667e+00   5.3591147e+01
 8.2425333e+00   5.3249489e+01
 8.2480000e+00   5.3071458e+01
 8.2534667e+00   5.2693069e+01
 8.2589333e+00   5.3045814e+01
 8.2644000e+00   5.2596129e+01
 8.2698667e+00   5.2734205e+01
 8.2753333e+00   5.2241458e+01
 8.2808000e+00   5.2682248e+01
 8.2862667e+00   5.2092316e+01
 8.2917333e+00   5.2446002e+01
 8.2972000e+00   5.1859893e+01
 8.3026667e+00   5.2024755e+01
 8.3081333e+00   5.1710024e+01
 8.3136000e+00   5.1803608e+01
 8.3190667e+00   5.1449502e+01
 8.3245333e+00   5.1570942e+01
 8.3300000e+00   5.1385594e+01
 8.3354667e+00   5.1320240e+01
 8.3409333e+00   5.1351981e+01
 8.3464000e+00   5.1350974e+01
 8.3518667e+00   5.1256313e+01
 8.3573333e+00   5.1122524e+01
 8.3628000e+00   5.1348569e+01
 8.3682667e+00   5.1105966e+01
 8.3737333e+00   5.1266239e+01
 8.3792000e+00   5.1173806e+01
 8.3846667e+00   5.1298421e+01
 8.3901333e+00   5.1061693e+01
 8.3956000e+00   5.1242066e+01
 8.4010667e+00   5.1067125e+01
 8.4065333e+00   5.1118514e+01
 8.4120000e+00   5.1120794e+01
 8.4174667e+00   5.1136705e+01
 8.4229333e+00   5.1064485e+01
 8.4284000e+00   5.1043795e+01
 8.4338667e+00   5.1060145e+01
 8.4393333e+00   5.1005680e+01
 8.4448000e+00   5.0922943e+01
 8.4502667e+00   5.0876749e+01
 8.4557333e+00   5.1004085e+01
 8.4612000e+00   5.0774873e+01
 8.4666667e+00   5.0986180e+01
 8.4721333e+00   5.0606045e+01
 8.4776000e+00   5.1152360e+01
 8.4830667e+00   5.0804159e+01
 8.4885333e+00   5.1072258e+01
 8.4940000e+00   5.0834136e+01
 8.4994667e+00   5.1090538e+01
 8.5049333e+00   5.0724271e+01
 8.5104000e+00   5.1006774e+01
 8.5158667e+00   5.0522042e+01
 8.5213333e+00   5.0829595e+01
 8.5268000e+00   5.0328262e+01
 8.5322667e+00   5.0661998e+01
 8.5377333e+00   5.0410902e+01
 8.5432000e+00   5.0431658e+01
 8.5486667e+00   5.0335535e+01
 8.5541333e+00   5.0158965e+01
 8.5596000e+00   5.0398311e+01
 8.5650667e+00   4.9998837e+01
 8.5705333e+00   5.0227568e+01
 8.5760000e+00   4.9987458e+01
 8.5814667e+00   5.0438791e+01
 8.5869333e+00   5.0007891e+01
 8.5924000e+00   5.0294926e+01
 8.5978667e+00   5.0240721e+01
 8.6033333e+00   5.0231899e+01
 8.6088000e+00   5.0043083e+01
 8.6142667e+00   5.0152504e+01
 8.6197333e+00   4.9748189e+01
 8.6252000e+00   5.0176170e+01
 8.6306667e+00   4.9479758e+01
 8.6361333e+00   4.9973684e+01
 8.6416000e+00   4.9421783e+01
 8.6470667e+00   4.9685571e+01
 8.6525333e+00   4.9397596e+01
 8.6580000e+00   4.9404894e+01
 8.6634667e+00   4.9250338e+01
 8.6689333e+00   4.9208196e+01
 8.6744000e+00   4.9315231e+01
 8.6798667e+00   4.9182874e+01
 8.6853333e+00   4.9560890e+01
 8.6908000e+00   4.8888607e+01
 8.6962667e+00   4.9466835e+01
 8.7017333e+00   4.8853129e+01
 8.7072000e+00   4.9318841e+01
 8.7126667e+00   4.8916611e+01
 8.7181333e+00   4.9096074e+01
 8.7236000e+00   4.8859830e+01
 8.7290667e+00   4.9062478e+01
 8.7345333e+00   4.8751642e+01
 8.7400000e+00   4.9203477e+01
 8.7454667e+00   4.8646608e+01
 8.7509333e+00   4.9049017e+01
 8.7564000e+00   4.8658138e+01
 8.7618667e+00   4.8991550e+01
 8.7673333e+00   4.8674273e+01
 8.7728000e+00   4.8663398e+01
 8.7782667e+00   4.8720256e+01
 8.7837333e+00   4.8594018e+01
 8.7892000e+00   4.8628423e+01
 8.7946667e+00   4.8530783e+01
 8.8001333e+00   4.8675539e+01
 8.8056000e+00   4.8155852e+01
 8.8110667e+00   4.8622385e+01
 8.8165333e+00   4.8015815e+01
 8.8220000e+00   4.8542780e+01
 8.8274667e+00   4.8235226e+01
 8.8329333e+00   4.8464651e+01
 8.8384000e+00   4.8202808e+01
 8.8438667e+00   4.8605354e+01
 8.8493333e+00   4.7955891e+01
 8.8548000e+00   4.8538349e+01
 8.8602667e+00   4.7760248e+01
 8.8657333e+00   4.8410202e+01
 8.8712000e+00   4.7823497e+01
 8.8766667e+00   4.8404213e+01
 8.8821333e+00   4.7734844e+01
 8.8876000e+00   4.8381851e+01
 8.8930667e+00   4.7863194e+01
 8.8985333e+00   4.8294791e+01
 8.9040000e+00   4.8139978e+01
 8.9094667e+00   4.8022600e+01
 8.9149333e+00   4.8064591e+01
 8.9204000e+00   4.7981648e+01
 8.9258667e+00   4.8121136e+01
 8.9313333e+00   4.7786448e+01
 8.9368000e+00   4.8090763e+01
 8.9422667e+00   4.7623412e+01
 8.9477333e+00   4.8057770e+01
 8.9532000e+00   4.7716829e+01
 8.9586667e+00   4.8050373e+01
 8.9641333e+00   4.7927831e+01
 8.9696000e+00   4.8181728e+01
 8.9750667e+00   4.8041211e+01
 8.9805333e+00   4.8636518e+01
 8.9860000e+00   4.8744875e+01
 8.9914667e+00   5.0126866e+01
 8.9969333e+00   5.1324267e+01
 9.0024000e+00   5.3962555e+01
 9.0078667e+00   5.6933512e+01
 9.0133333e+00   6.3143616e+01
 9.0188000e+00   6.8471681e+01
 9.0242667e+00   7.6749835e+01
 9.0297333e+00   7.8450307e+01
 9.0352000e+00   7.9474849e+01
 9.0406667e+00   8.1409045e+01
 9.0461333e+00   7.9511801e+01
 9.0516000e+00   7.7935284e+01
 9.0570667e+00   7.1936117e+01
 9.0625333e+00   6.6586372e+01
 9.0680000e+00   6.0511102e+01
 9.0734667e+00   5.7901504e+01
 9.0789333e+00   5.3201811e+01
 9.0844000e+00   5.2765410e+01
 9.0898667e+00   4.9715114e+01
 9.0953333e+00   4.8971348e+01
 9.1008000e+00   4.7644205e+01
 9.1062667e+00   4.7330551e+01
 9.1117333e+00   4.6831795e+01
 9.1172000e+00   4.6717041e+01
 9.1226667e+00   4.6481100e+01
 9.1281333e+00   4.6339138e+01
 9.1336000e+00   4.6397324e+01
 9.1390667e+00   4.6123704e+01
 9.1445333e+00   4.6182483e+01
 9.1500000e+00   4.5825276e+01
 9.1554667e+00   4.5981336e+01
 9.1609333e+00   4.5666278e+01
 9.1664000e+00   4.5816772e+01
 9.1718667e+00   4.5327359e+01
 9.1773333e+00   4.5539546e+01
 9.1828000e+00   4.5320330e+01
 9.1882667e+00   4.5614405e+01
 9.1937333e+00   4.5077985e+01
 9.1992000e+00   4.5564587e+01
 9.2046667e+00   4.5118598e+01
 9.2101333e+00   4.5306667e+01
 9.2156000e+00   4.5146214e+01
 9.2210667e+00   4.5097350e+01
 9.2265333e+00   4.4788989e+01
 9.2320000e+00   4.4990362e+01
 9.2374667e+00   4.4682281e+01
 9.2429333e+00   4.4617804e+01
 9.2484000e+00   4.4732830e+01
 9.2538667e+00   4.4470898e+01
 9.2593333e+00   4.4607672e+01
 9.2648000e+00   4.4524467e+01
 9.2702667e+00   4.4676317e+01
 9.2757333e+00   4.4126038e+01
 9.2812000e+00   4.4632919e+01
 9.2866667e+00   4.4098643e+01
 9.2921333e+00   4.4494836e+01
 9.2976000e+00   4.3922946e+01
 9.3030667e+00   4.4253785e+01
 9.3085333e+00   4.3946031e+01
 9.3140000e+00   4.4240256e+01
 9.3194667e+00   4.3765685e+01
 9.3249333e+00   4.4359906e+01
 9.3304000e+00   4.3816255e+01
 9.3358667e+00   4.4021425e+01
 9.3413333e+00   4.3820586e+01
 9.3468000e+00   4.3876368e+01
 9.3522667e+00   4.3630108e+01
 9.3577333e+00   4.3803314e+01
 9.3632000e+00   4.4058154e+01
 9.3686667e+00   4.3788623e+01
 9.3741333e+00   4.4245980e+01
 9.3796000e+00   4.3839484e+01
 9.3850667e+00   4.4263777e+01
 9.3905333e+00   4.3638050e+01
 9.3960000e+00   4.4245078e+01
 9.4014667e+00   4.3801017e+01
 9.4069333e+00   4.4050828e+01
 9.4124000e+00   4.3775536e+01
 9.4178667e+00   4.4299091e+01
 9.4233333e+00   4.3884317e+01
 9.4288000e+00   4.4183709e+01
 9.4342667e+00   4.4001368e+01
 9.4397333e+00   4.4480985e+01
 9.4452000e+00   4.4040821e+01
 9.4506667e+00   4.4858586e+01
 9.4561333e+00   4.4557453e+01
 9.4616000e+00   4.6376290e+01
 9.4670667e+00   4.5401407e+01
 9.4725333e+00   5.6269578e+01
 9.4780000e+00   4.9917789e+01
 9.4834667e+00   5.6752225e+01
 9.4889333e+00   6.5738979e+01
 9.4944000e+00   6.6775135e+01
 9.4998667e+00   8.8512952e+01
 9.5053333e+00   8.6582851e+01
 9.5108000e+00   8.9842270e+01
 9.5162667e+00   7.8723438e+01
 9.5217333e+00   8.0034179e+01
 9.5272000e+00   7.6895377e+01
 9.5326667e+00   7.8071584e+01
 9.5381333e+00   8.2320389e+01
 9.5436000e+00   7.9202399e+01
 9.5490667e+00   9.0834866e+01
 9.5545333e+00   1.0193431e+02
 9.5600000e+00   1.0995333e+02
 9.5654667e+00   9.8319175e+01
 9.5709333e+00   1.0359509e+02
 9.5764000e+00   9.5853551e+01
 9.5818667e+00   8.4160201e+01
 9.5873333e+00   6.2992026e+01
 9.5928000e+00   5.2229944e+01
 9.5982667e+00   4.9691362e+01
 9.6037333e+00   4.5146972e+01
 9.6092000e+00   4.4627745e+01
 9.6146667e+00   4.3517542e+01
 9.6201333e+00   4.3004011e+01
 9.6256000e+00   4.2791149e+01
 9.6310667e+00   4.2392884e+01
 9.6365333e+00   4.2434146e+01
 9.6420000e+00   4.1803851e+01
 9.6474667e+00   4.2234100e+01
 9.6529333e+00   4.1621058e+01
 9.6584000e+00   4.2110029e+01
 9.6638667e+00   4.1449563e+01
 9.6693333e+00   4.1728861e+01
 9.6748000e+00   4.1227763e+01
 9.6802667e+00   4.1827034e+01
 9.6857333e+00   4.1127108e+01
 9.6912000e+00   4.1625969e+01
 9.6966667e+00   4.1070019e+01
 9.7021333e+00   4.1541835e+01
 9.7076000e+00   4.0899223e+01
 9.7130667e+00   4.1371897e+01
 9.7185333e+00   4.0697567e+01
 9.7240000e+00   4.0986213e+01
 9.7294667e+00   4.0748835e+01
 9.7349333e+00   4.0739856e+01
 9.7404000e+00   4.0643599e+01
 9.7458667e+00   4.0623784e+01
 9.7513333e+00   4.0526461e+01
 9.7568000e+00   4.0442813e+01
 9.7622667e+00   4.0325746e+01
 9.7677333e+00   4.0148441e+01
 9.7732000e+00   4.0239607e+01
 9.7786667e+00   3.9901931e+01
 9.7841333e+00   4.0316587e+01
 9.7896000e+00   3.9668814e+01
 9.7950667e+00   4.0123501e+01
 9.8005333e+00   3.9826101e+01
 9.8060000e+00   4.0163810e+01
 9.8114667e+00   3.9621473e+01
 9.8169333e+00   4.0226639e+01
 9.8224000e+00   3.9698523e+01
 9.8278667e+00   4.0274528e+01
 9.8333333e+00   3.9676453e+01
 9.8388000e+00   4.0312778e+01
 9.8442667e+00   3.9888401e+01
 9.8497333e+00   4.0257036e+01
 9.8552000e+00   3.9908132e+01
 9.8606667e+00   4.0267937e+01
 9.8661333e+00   3.9863161e+01
 9.8716000e+00   4.0488300e+01
 9.8770667e+00   4.0210974e+01
 9.8825333e+00   4.0222749e+01
 9.8880000e+00   4.0857479e+01
 9.8934667e+00   4.0969212e+01
 9.8989333e+00   4.1069747e+01
 9.9044000e+00   4.1942066e+01
 9.9098667e+00   4.2733824e+01
 9.9153333e+00   4.6664320e+01
 9.9208000e+00   4.6407190e+01
 9.9262667e+00   5.2081069e+01
 9.9317333e+00   5.2240818e+01
 9.9372000e+00   6.3137738e+01
 9.9426667e+00   7.1890854e+01
 9.9481333e+00   6.2468182e+01
 9.9536000e+00   8.2210713e+01
 9.9590667e+00   6.5949893e+01
 9.9645333e+00   6.7992814e+01
 9.9700000e+00   6.9126771e+01
 9.9754667e+00   6.1975365e+01
 9.9809333e+00   6.5244229e+01
 9.9864000e+00   6.6333631e+01
 9.9918667e+00   5.7999675e+01
 9.9973333e+00   5.8120510e+01
 1.0002800e+01   4.6871280e+01
 1.0008267e+01   4.4608616e+01
 1.0013733e+01   4.3634784e+01
 1.0019200e+01   4.2525772e+01
 1.0024667e+01   4.1256105e+01
 1.0030133e+01   4.1116792e+01
 1.0035600e+01   4.0774917e+01
 1.0041067e+01   4.0507108e+01
 1.0046533e+01   4.0725844e+01
 1.0052000e+01   4.0529554e+01
 1.0057467e+01   4.1014229e+01
 1.0062933e+01   4.1262519e+01
 1.0068400e+01   4.3230099e+01
 1.0073867e+01   4.4983709e+01
 1.0079333e+01   4.8379264e+01
 1.0084800e+01   5.1890273e+01
 1.0090267e+01   5.7225986e+01
 1.0095733e+01   6.0742191e+01
 1.0101200e+01   6.6840612e+01
 1.0106667e+01   6.8808230e+01
 1.0112133e+01   7.2652589e+01
 1.0117600e+01   7.1110694e+01
 1.0123067e+01   6.8760970e+01
 1.0128533e+01   6.4369165e+01
 1.0134000e+01   5.9063447e+01
 1.0139467e+01   5.3044284e+01
 1.0144933e+01   4.9276494e+01
 1.0150400e+01   4.5212272e+01
 1.0155867e+01   4.2506674e+01
 1.0161333e+01   4.0446839e+01
 1.0166800e+01   3.9577915e+01
 1.0172267e+01   3.9142831e+01
 1.0177733e+01   3.8705246e+01
 1.0183200e+01   3.8628318e+01
 1.0188667e+01   3.8264553e+01
 1.0194133e+01   3.8323359e+01
 1.0199600e+01   3.8053081e+01
 1.0205067e+01   3.8013998e+01
 1.0210533e+01   3.7659326e+01
 1.0216000e+01   3.7911001e+01
 1.0221467e+01   3.7487194e+01
 1.0226933e+01   3.7736786e+01
 1.0232400e+01   3.7349441e+01
 1.0237867e+01   3.7491010e+01
 1.0243333e+01   3.7193561e+01
 1.0248800e+01   3.7319249e+01
 1.0254267e+01   3.6990388e+01
 1.0259733e+01   3.7354320e+01
 1.0265200e+01   3.6901751e+01
 1.0270667e+01   3.6987154e+01
 1.0276133e+01   3.7104505e+01
 1.0281600e+01   3.6688899e+01
 1.0287067e+01   3.6743912e+01
 1.0292533e+01   3.7038923e+01
 1.0298000e+01   3.6532625e+01
 1.0303467e+01   3.6767859e+01
 1.0308933e+01   3.6828968e+01
 1.0314400e+01   3.6688258e+01
 1.0319867e+01   3.6591898e+01
 1.0325333e+01   3.6695018e+01
 1.0330800e+01   3.6633010e+01
 1.0336267e+01   3.6516672e+01
 1.0341733e+01   3.6547644e+01
 1.0347200e+01   3.6362041e+01
 1.0352667e+01   3.6268704e+01
 1.0358133e+01   3.6146683e+01
 1.0363600e+01   3.6271292e+01
 1.0369067e+01   3.6132443e+01
 1.0374533e+01   3.6458947e+01
 1.0380000e+01   3.6050844e+01
 1.0385467e+01   3.6394955e+01
 1.0390933e+01   3.6242650e+01
 1.0396400e+01   3.6291003e+01
 1.0401867e+01   3.6336361e+01
 1.0407333e+01   3.6078544e+01
 1.0412800e+01   3.6366103e+01
 1.0418267e+01   3.6185651e+01
 1.0423733e+01   3.6192510e+01
 1.0429200e+01   3.5996894e+01
 1.0434667e+01   3.6209809e+01
 1.0440133e+01   3.6000865e+01
 1.0445600e+01   3.6117041e+01
 1.0451067e+01   3.5916174e+01
 1.0456533e+01   3.6190194e+01
 1.0462000e+01   3.6036988e+01
 1.0467467e+01   3.6175154e+01
 1.0472933e+01   3.5952616e+01
 1.0478400e+01   3.6160554e+01
 1.0483867e+01   3.5975601e+01
 1.0489333e+01   3.6096928e+01
 1.0494800e+01   3.5901663e+01
 1.0500267e+01   3.5961641e+01
 1.0505733e+01   3.5901445e+01
 1.0511200e+01   3.5854353e+01
 1.0516667e+01   3.5882403e+01
 1.0522133e+01   3.5888625e+01
 1.0527600e+01   3.5872863e+01
 1.0533067e+01   3.5990006e+01
 1.0538533e+01   3.5925780e+01
 1.0544000e+01   3.5889101e+01
 1.0549467e+01   3.5912134e+01
 1.0554933e+01   3.5930737e+01
 1.0560400e+01   3.5833056e+01
 1.0565867e+01   3.5851396e+01
 1.0571333e+01   3.5758663e+01
 1.0576800e+01   3.5797479e+01
 1.0582267e+01   3.5599058e+01
 1.0587733e+01   3.5917964e+01
 1.0593200e+01   3.5748274e+01
 1.0598667e+01   3.5570070e+01
 1.0604133e+01   3.5877460e+01
 1.0609600e+01   3.5600082e+01
 1.0615067e+01   3.5985563e+01
 1.0620533e+01   3.5738050e+01
 1.0626000e+01   3.5932910e+01
 1.0631467e+01   3.5710496e+01
 1.0636933e+01   3.5831130e+01
 1.0642400e+01   3.5715910e+01
 1.0647867e+01   3.5698364e+01
 1.0653333e+01   3.5766304e+01
 1.0658800e+01   3.5742019e+01
 1.0664267e+01   3.5673205e+01
 1.0669733e+01   3.5777012e+01
 1.0675200e+01   3.5671280e+01
 1.0680667e+01   3.5656598e+01
 1.0686133e+01   3.5905335e+01
 1.0691600e+01   3.5666949e+01
 1.0697067e+01   3.5953296e+01
 1.0702533e+01   3.5644830e+01
 1.0708000e+01   3.5839811e+01
 1.0713467e+01   3.5837550e+01
 1.0718933e+01   3.6056218e+01
 1.0724400e+01   3.5780489e+01
 1.0729867e+01   3.5763732e+01
 1.0735333e+01   3.5736746e+01
 1.0740800e+01   3.5826152e+01
 1.0746267e+01   3.5701170e+01
 1.0751733e+01   3.5853841e+01
 1.0757200e+01   3.5669927e+01
 1.0762667e+01   3.5780306e+01
 1.0768133e+01   3.5660652e+01
 1.0773600e+01   3.5746407e+01
 1.0779067e+01   3.5392354e+01
 1.0784533e+01   3.5545445e+01
 1.0790000e+01   3.5464127e+01
 1.0795467e+01   3.5396023e+01
 1.0800933e+01   3.5473808e+01
 1.0806400e+01   3.5477814e+01
 1.0811867e+01   3.5482432e+01
 1.0817333e+01   3.5478254e+01
 1.0822800e+01   3.5454227e+01
 1.0828267e+01   3.5546925e+01
 1.0833733e+01   3.5726228e+01
 1.0839200e+01   3.5529986e+01
 1.0844667e+01   3.5609419e+01
 1.0850133e+01   3.5631991e+01
 1.0855600e+01   3.5645915e+01
 1.0861067e+01   3.5610861e+01
 1.0866533e+01   3.5558301e+01
 1.0872000e+01   3.5492975e+01
 1.0877467e+01   3.5638857e+01
 1.0882933e+01   3.5475035e+01
 1.0888400e+01   3.5765379e+01
 1.0893867e+01   3.5509733e+01
 1.0899333e+01   3.5567053e+01
 1.0904800e+01   3.5437611e+01
 1.0910267e+01   3.5866406e+01
 1.0915733e+01   3.5353811e+01
 1.0921200e+01   3.5648897e+01
 1.0926667e+01   3.5480066e+01
 1.0932133e+01   3.5815215e+01
 1.0937600e+01   3.5494870e+01
 1.0943067e+01   3.5910240e+01
 1.0948533e+01   3.5527321e+01
 1.0954000e+01   3.5749681e+01
 1.0959467e+01   3.5567436e+01
 1.0964933e+01   3.5769373e+01
 1.0970400e+01   3.5577689e+01
 1.0975867e+01   3.5671842e+01
 1.0981333e+01   3.5738944e+01
 1.0986800e+01   3.5831657e+01
 1.0992267e+01   3.5750780e+01
 1.0997733e+01   3.5879428e+01
 1.1003200e+01   3.5791280e+01
 1.1008667e+01   3.5935632e+01
 1.1014133e+01   3.5819196e+01
 1.1019600e+01   3.5981377e+01
 1.1025067e+01   3.6138300e+01
 1.1030533e+01   3.6126662e+01
 1.1036000e+01   3.6650241e+01
 1.1041467e+01   3.6731452e+01
 1.1046933e+01   3.7603471e+01
 1.1052400e+01   3.8310363e+01
 1.1057867e+01   3.9330780e+01
 1.1063333e+01   3.9955757e+01
 1.1068800e+01   4.0832420e+01
 1.1074267e+01   4.0953891e+01
 1.1079733e+01   4.1293541e+01
 1.1085200e+01   4.0731023e+01
 1.1090667e+01   4.0906843e+01
 1.1096133e+01   3.9977063e+01
 1.1101600e+01   3.9247887e+01
 1.1107067e+01   3.8802032e+01
 1.1112533e+01   3.7959764e+01
 1.1118000e+01   3.7299204e+01
 1.1123467e+01   3.6827915e+01
 1.1128933e+01   3.6819213e+01
 1.1134400e+01   3.6364077e+01
 1.1139867e+01   3.6497342e+01
 1.1145333e+01   3.6212071e+01
 1.1150800e+01   3.6408936e+01
 1.1156267e+01   3.6138415e+01
 1.1161733e+01   3.6445450e+01
 1.1167200e+01   3.6204168e+01
 1.1172667e+01   3.6334351e+01
 1.1178133e+01   3.6252510e+01
 1.1183600e+01   3.6359997e+01
 1.1189067e+01   3.6023041e+01
 1.1194533e+01   3.6424575e+01
